# 3D Evrard collapse
# Equivalent 1D problem with 1000 cell co-moving grid
# t = 0.98
# radius	density	radial velocity	pressure
5.79034e-05	5672.19	-8.29354e-05	308.325
0.000173727	5642.06	3.40437e-05	306.249
0.000289544	5544.76	-0.0001237	302.831
0.000405386	5327.67	-7.45581e-05	297.728
0.000521244	4864.79	-5.99967e-05	291.614
0.000637115	4065.07	-0.000159924	285.313
0.00075302	3039.15	-0.000152612	279.815
0.000868957	2272.09	-9.10031e-05	275.594
0.000984914	1822.91	-4.54607e-05	272.409
0.00110088	1555.92	-2.38025e-05	269.862
0.00121686	1388.03	-1.87749e-05	267.71
0.00133285	1273.83	-2.30128e-05	265.817
0.00144885	1188.93	-3.21078e-05	264.101
0.00156485	1120.39	-4.37759e-05	262.516
0.00168088	1061.61	-5.65481e-05	261.032
0.00179692	1009.48	-6.9616e-05	259.631
0.00191298	962.616	-8.25461e-05	258.3
0.00202906	920.553	-9.51268e-05	257.03
0.00214517	883.223	-0.000107347	255.812
0.00226131	850.497	-0.000119297	254.637
0.00237747	821.948	-0.000131082	253.5
0.00249368	796.895	-0.000142769	252.394
0.00260992	774.549	-0.000154385	251.314
0.0027262	754.147	-0.000165914	250.256
0.00284252	735.074	-0.000177306	249.218
0.00295889	716.956	-0.000188498	248.198
0.0030753	699.669	-0.000199456	247.195
0.00319176	683.238	-0.000210176	246.207
0.00330828	667.702	-0.000220682	245.233
0.00342485	653.052	-0.000231	244.273
0.00354148	639.23	-0.000241148	243.325
0.00365817	626.167	-0.000251132	242.389
0.00377491	613.828	-0.000260954	241.463
0.00389173	602.222	-0.000270631	240.547
0.00400861	591.35	-0.000280193	239.64
0.00412556	581.141	-0.000289676	238.741
0.00424258	571.44	-0.000299096	237.849
0.00435967	562.077	-0.000308439	236.965
0.00447684	552.951	-0.000317682	236.087
0.00459408	544.063	-0.000326809	235.216
0.00471141	535.468	-0.000335825	234.351
0.00482882	527.214	-0.000344749	233.493
0.00494631	519.29	-0.0003536	232.64
0.00506389	511.634	-0.000362385	231.793
0.00518155	504.18	-0.000371093	230.952
0.00529931	496.911	-0.000379712	230.116
0.00541716	489.868	-0.000388236	229.285
0.0055351	483.114	-0.000396681	228.46
0.00565314	476.673	-0.000405064	227.639
0.00577128	470.523	-0.000413401	226.822
0.00588952	464.615	-0.000421692	226.01
0.00600786	458.909	-0.000429936	225.202
0.00612631	453.388	-0.000438133	224.398
0.00624486	448.039	-0.000446286	223.597
0.00636353	442.844	-0.000454402	222.8
0.0064823	437.773	-0.00046248	222.006
0.00660118	432.798	-0.000470516	221.215
0.00672019	427.903	-0.000478506	220.428
0.0068393	423.09	-0.000486449	219.644
0.00695854	418.365	-0.000494345	218.864
0.0070779	413.727	-0.000502198	218.087
0.00719738	409.166	-0.000510009	217.313
0.00731698	404.669	-0.000517773	216.542
0.00743671	400.241	-0.000525483	215.775
0.00755657	395.909	-0.000533136	215.011
0.00767656	391.715	-0.000540735	214.25
0.00779669	387.693	-0.000548292	213.492
0.00791695	383.845	-0.000555824	212.737
0.00803734	380.138	-0.000563338	211.985
0.00815787	376.521	-0.000570834	211.235
0.00827855	372.954	-0.000578301	210.488
0.00839936	369.427	-0.000585731	209.743
0.00852032	365.96	-0.00059312	209.001
0.00864142	362.579	-0.000600472	208.261
0.00876268	359.298	-0.000607798	207.523
0.00888408	356.102	-0.000615104	206.788
0.00900564	352.961	-0.000622393	206.055
0.00912735	349.837	-0.000629658	205.324
0.00924921	346.712	-0.000636888	204.595
0.00937123	343.596	-0.000644071	203.868
0.00949341	340.531	-0.000651208	203.144
0.00961576	337.55	-0.000658307	202.422
0.00973826	334.667	-0.000665374	201.703
0.00986093	331.876	-0.000672418	200.985
0.00998377	329.159	-0.000679439	200.269
0.0101068	326.488	-0.00068644	199.555
0.01023	323.839	-0.000693417	198.843
0.0103533	321.195	-0.000700362	198.133
0.0104768	318.553	-0.000707269	197.425
0.0106005	315.926	-0.000714133	196.719
0.0107244	313.333	-0.000720956	196.015
0.0108485	310.788	-0.000727738	195.313
0.0109727	308.301	-0.000734482	194.613
0.0110972	305.874	-0.000741188	193.915
0.0112218	303.51	-0.000747857	193.218
0.0113466	301.208	-0.000754493	192.524
0.0114716	298.96	-0.000761096	191.831
0.0115968	296.753	-0.00076767	191.139
0.0117221	294.569	-0.000774211	190.45
0.0118477	292.393	-0.000780716	189.761
0.0119735	290.216	-0.000787185	189.075
0.0120995	288.023	-0.0007936	188.39
0.0122256	285.84	-0.000799956	187.707
0.012352	283.698	-0.000806259	187.026
0.0124786	281.611	-0.000812513	186.346
0.0126054	279.581	-0.00081872	185.668
0.0127324	277.602	-0.000824883	184.991
0.0128596	275.665	-0.000831001	184.317
0.012987	273.76	-0.000837072	183.643
0.0131146	271.879	-0.000843095	182.971
0.0132425	270.016	-0.000849068	182.3
0.0133706	268.166	-0.000854989	181.631
0.0134988	266.322	-0.000860855	180.963
0.0136274	264.481	-0.000866664	180.296
0.0137561	262.64	-0.000872412	179.631
0.0138851	260.803	-0.000878094	178.968
0.0140143	258.976	-0.000883708	178.306
0.0141437	257.168	-0.000889252	177.646
0.0142733	255.388	-0.000894724	176.987
0.0144032	253.643	-0.000900126	176.33
0.0145333	251.938	-0.000905458	175.674
0.0146637	250.275	-0.000910722	175.019
0.0147943	248.649	-0.000915919	174.366
0.0149251	247.055	-0.00092105	173.715
0.0150562	245.482	-0.000926112	173.064
0.0151875	243.92	-0.000931105	172.415
0.0153191	242.362	-0.000936025	171.766
0.0154509	240.804	-0.000940865	171.12
0.015583	239.247	-0.000945621	170.474
0.0157153	237.702	-0.000950291	169.83
0.0158479	236.175	-0.000954875	169.187
0.0159807	234.672	-0.000959375	168.545
0.0161138	233.193	-0.00096379	167.905
0.0162472	231.735	-0.000968122	167.265
0.0163808	230.293	-0.000972368	166.628
0.0165147	228.862	-0.000976526	165.991
0.0166488	227.44	-0.000980593	165.355
0.0167832	226.028	-0.000984567	164.721
0.0169179	224.627	-0.000988446	164.088
0.0170529	223.239	-0.00099223	163.456
0.0171881	221.863	-0.000995917	162.825
0.0173236	220.501	-0.000999506	162.195
0.0174594	219.152	-0.001003	161.567
0.0175954	217.815	-0.00100639	160.94
0.0177318	216.492	-0.00100967	160.314
0.0178684	215.183	-0.00101286	159.689
0.0180053	213.888	-0.00101594	159.065
0.0181425	212.606	-0.00101892	158.443
0.01828	211.334	-0.00102179	157.821
0.0184178	210.072	-0.00102456	157.201
0.0185558	208.818	-0.00102721	156.582
0.0186942	207.576	-0.00102975	155.964
0.0188328	206.348	-0.00103219	155.347
0.0189718	205.136	-0.00103451	154.731
0.019111	203.94	-0.00103672	154.117
0.0192506	202.758	-0.00103881	153.503
0.0193905	201.585	-0.0010408	152.89
0.0195306	200.417	-0.00104268	152.279
0.0196711	199.25	-0.00104444	151.668
0.0198119	198.084	-0.00104608	151.059
0.019953	196.921	-0.0010476	150.45
0.0200944	195.767	-0.00104899	149.843
0.0202361	194.627	-0.00105026	149.237
0.0203781	193.5	-0.00105141	148.632
0.0205205	192.389	-0.00105244	148.028
0.0206632	191.289	-0.00105335	147.425
0.0208062	190.199	-0.00105414	146.823
0.0209495	189.117	-0.0010548	146.222
0.0210932	188.043	-0.00105534	145.622
0.0212371	186.977	-0.00105576	145.024
0.0213814	185.921	-0.00105605	144.426
0.0215261	184.873	-0.00105621	143.829
0.0216711	183.834	-0.00105624	143.233
0.0218164	182.801	-0.00105615	142.638
0.021962	181.771	-0.00105594	142.045
0.022108	180.742	-0.0010556	141.452
0.0222544	179.713	-0.00105513	140.86
0.022401	178.685	-0.00105452	140.27
0.0225481	177.664	-0.00105378	139.68
0.0226954	176.653	-0.0010529	139.092
0.0228432	175.656	-0.00105189	138.504
0.0229912	174.674	-0.00105074	137.918
0.0231397	173.707	-0.00104947	137.332
0.0232884	172.751	-0.00104807	136.748
0.0234376	171.804	-0.00104654	136.165
0.0235871	170.86	-0.00104487	135.582
0.0237369	169.919	-0.00104308	135.001
0.0238872	168.981	-0.00104115	134.42
0.0240377	168.046	-0.00103908	133.841
0.0241887	167.117	-0.00103687	133.262
0.02434	166.197	-0.00103452	132.685
0.0244917	165.287	-0.00103204	132.108
0.0246438	164.386	-0.00102942	131.533
0.0247962	163.493	-0.00102667	130.958
0.024949	162.606	-0.00102379	130.384
0.0251022	161.721	-0.00102077	129.812
0.0252558	160.837	-0.00101762	129.24
0.0254098	159.952	-0.00101433	128.669
0.0255641	159.061	-0.0010109	128.1
0.0257188	158.172	-0.00100731	127.531
0.0258739	157.292	-0.00100358	126.963
0.0260295	156.425	-0.000999709	126.397
0.0261854	155.574	-0.000995698	125.831
0.0263416	154.737	-0.000991552	125.267
0.0264983	153.911	-0.000987272	124.703
0.0266554	153.094	-0.000982858	124.14
0.0268129	152.281	-0.000978309	123.578
0.0269708	151.47	-0.000973624	123.018
0.0271291	150.658	-0.000968804	122.458
0.0272878	149.845	-0.000963853	121.899
0.0274469	149.023	-0.000958771	121.341
0.0276064	148.189	-0.000953523	120.784
0.0277663	147.358	-0.000948119	120.228
0.0279266	146.54	-0.000942571	119.673
0.0280874	145.738	-0.000936884	119.119
0.0282485	144.951	-0.000931062	118.567
0.0284101	144.175	-0.000925107	118.015
0.0285721	143.409	-0.000919018	117.464
0.0287346	142.65	-0.000912797	116.914
0.0288974	141.894	-0.000906441	116.365
0.0290607	141.14	-0.000899951	115.817
0.0292244	140.387	-0.000893326	115.27
0.0293885	139.633	-0.000886566	114.724
0.0295531	138.879	-0.000879669	114.179
0.0297181	138.124	-0.000872629	113.635
0.0298835	137.371	-0.000865449	113.092
0.0300494	136.623	-0.00085813	112.55
0.0302157	135.88	-0.000850674	112.009
0.0303825	135.145	-0.000843082	111.47
0.0305497	134.415	-0.000835356	110.931
0.0307173	133.692	-0.000827498	110.393
0.0308854	132.974	-0.000819508	109.856
0.031054	132.261	-0.000811386	109.32
0.031223	131.551	-0.000803132	108.785
0.0313924	130.844	-0.000794748	108.251
0.0315623	130.141	-0.000786232	107.718
0.0317327	129.44	-0.000777587	107.187
0.0319035	128.742	-0.000768812	106.656
0.0320748	128.047	-0.000759908	106.126
0.0322465	127.354	-0.000750875	105.597
0.0324187	126.664	-0.000741714	105.07
0.0325914	125.977	-0.000732425	104.543
0.0327645	125.295	-0.000723009	104.017
0.0329382	124.618	-0.000713467	103.493
0.0331122	123.946	-0.000703801	102.969
0.0332868	123.281	-0.000694014	102.447
0.0334618	122.622	-0.000684108	101.925
0.0336374	121.968	-0.000674086	101.405
0.0338134	121.319	-0.00066395	100.885
0.0339898	120.672	-0.000653701	100.367
0.0341668	120.027	-0.000643341	99.8496
0.0343442	119.383	-0.000632869	99.3333
0.0345222	118.738	-0.000622289	98.8179
0.0347006	118.092	-0.000611593	98.3037
0.0348795	117.447	-0.000600781	97.7905
0.0350589	116.805	-0.000589858	97.2784
0.0352389	116.167	-0.000578828	96.7674
0.0354193	115.534	-0.000567694	96.2575
0.0356002	114.905	-0.000556459	95.7487
0.0357816	114.282	-0.000545124	95.241
0.0359635	113.663	-0.000533693	94.7344
0.0361459	113.048	-0.000522166	94.2288
0.0363288	112.438	-0.000510548	93.7243
0.0365123	111.831	-0.00049884	93.2209
0.0366962	111.228	-0.000487047	92.7186
0.0368807	110.628	-0.000475172	92.2173
0.0370657	110.03	-0.000463216	91.7171
0.0372512	109.432	-0.000451183	91.218
0.0374372	108.835	-0.000439074	90.72
0.0376237	108.237	-0.000426895	90.2232
0.0378108	107.638	-0.000414637	89.7274
0.0379983	107.038	-0.0004023	89.2329
0.0381865	106.442	-0.000389893	88.7395
0.0383751	105.851	-0.000377419	88.2472
0.0385643	105.264	-0.000364887	87.7562
0.038754	104.683	-0.0003523	87.2663
0.0389442	104.107	-0.000339662	86.7775
0.039135	103.535	-0.000326979	86.2899
0.0393263	102.967	-0.000314253	85.8034
0.0395182	102.403	-0.000301488	85.3181
0.0397105	101.841	-0.00028869	84.8339
0.0399035	101.283	-0.000275863	84.3509
0.040097	100.727	-0.000263013	83.869
0.040291	100.172	-0.000250142	83.3883
0.0404856	99.617	-0.000237256	82.9087
0.0406808	99.0626	-0.000224356	82.4303
0.0408765	98.5084	-0.000211444	81.9531
0.0410727	97.955	-0.000198525	81.4771
0.0412695	97.403	-0.000185603	81.0024
0.0414669	96.8536	-0.000172683	80.5288
0.0416648	96.3073	-0.000159772	80.0565
0.0418633	95.7648	-0.000146875	79.5855
0.0420624	95.226	-0.000134001	79.1156
0.0422621	94.6907	-0.000121154	78.647
0.0424623	94.1583	-0.000108342	78.1796
0.0426631	93.6281	-9.55689e-05	77.7134
0.0428644	93.0994	-8.28403e-05	77.2485
0.0430664	92.5715	-7.01601e-05	76.7848
0.0432689	92.0439	-5.75322e-05	76.3224
0.043472	91.5162	-4.49623e-05	75.8613
0.0436757	90.9877	-3.24566e-05	75.4014
0.0438799	90.4578	-2.00015e-05	74.9429
0.0440848	89.9292	-7.60677e-06	74.4857
0.0442902	89.4033	4.71982e-06	74.0298
0.0444963	88.8809	1.69715e-05	73.5753
0.0447029	88.3624	2.91419e-05	73.1221
0.0449101	87.8477	4.1225e-05	72.6702
0.0451179	87.3365	5.32156e-05	72.2197
0.0453264	86.8283	6.5109e-05	71.7705
0.0455354	86.3223	7.69012e-05	71.3227
0.045745	85.818	8.85885e-05	70.8761
0.0459553	85.3147	0.000100168	70.431
0.0461661	84.812	0.000111636	69.9871
0.0463776	84.3095	0.000122992	69.5447
0.0465896	83.8069	0.000134228	69.1036
0.0468023	83.304	0.000145342	68.664
0.0470156	82.7996	0.000156326	68.2257
0.0472295	82.2929	0.000167206	67.7889
0.0474441	81.7871	0.000177971	67.3536
0.0476593	81.2842	0.00018861	66.9198
0.0478751	80.785	0.00019912	66.4874
0.0480915	80.29	0.000209493	66.0565
0.0483085	79.7992	0.000219723	65.6271
0.0485262	79.3122	0.000229805	65.1991
0.0487445	78.8281	0.000239734	64.7726
0.0489635	78.3461	0.000249508	64.3476
0.0491831	77.8651	0.000259124	63.924
0.0494033	77.3845	0.000268581	63.5019
0.0496242	76.9037	0.000277872	63.0813
0.0498457	76.4217	0.000286983	62.6622
0.0500679	75.9357	0.000295899	62.2446
0.0502908	75.4417	0.000304599	61.8287
0.0505142	74.9333	0.000313065	61.4144
0.0507384	74.4022	0.000321279	61.0019
0.0509632	73.8382	0.000329225	60.5913
0.0511886	73.2298	0.000336916	60.183
0.0514147	72.5662	0.00034438	59.7772
0.0516415	71.8417	0.000352088	59.3742
0.051869	71.1118	0.000359951	58.9742
0.0520971	70.4145	0.000367644	58.5774
0.0523259	69.7486	0.000375144	58.1834
0.0525554	69.1115	0.000382441	57.7921
0.0527855	68.5001	0.000389529	57.4035
0.0530164	67.9111	0.000396404	57.0173
0.0532479	67.3412	0.000403068	56.6336
0.0534801	66.7875	0.00040952	56.2522
0.053713	66.2474	0.000415763	55.8731
0.0539465	65.7189	0.000421797	55.4962
0.0541808	65.2006	0.000427624	55.1215
0.0544158	64.6912	0.000433242	54.7489
0.0546514	64.1897	0.00043865	54.3784
0.0548878	63.6954	0.000443846	54.01
0.0551248	63.2076	0.000448827	53.6436
0.0553626	62.7253	0.000453589	53.2793
0.0556011	62.2477	0.00045813	52.917
0.0558403	61.7738	0.000462449	52.5568
0.0560802	61.3029	0.000466543	52.1985
0.0563208	60.834	0.000470413	51.8423
0.0565621	60.3666	0.00047406	51.488
0.0568042	59.9002	0.000477487	51.1358
0.057047	59.4349	0.000480694	50.7856
0.0572905	58.9709	0.000483686	50.4375
0.0575347	58.5091	0.000486462	50.0914
0.0577797	58.0501	0.000489023	49.7474
0.0580254	57.5951	0.000491367	49.4054
0.0582719	57.1447	0.000493488	49.0654
0.0585191	56.6997	0.000495385	48.7274
0.058767	56.2603	0.00049705	48.3914
0.0590157	55.8265	0.000498481	48.0574
0.0592652	55.3981	0.000499675	47.7254
0.0595154	54.9745	0.000500628	47.3953
0.0597663	54.5553	0.000501341	47.0671
0.060018	54.1399	0.00050181	46.7408
0.0602705	53.7278	0.000502058	46.4164
0.0605238	53.3187	0.000502038	46.0938
0.0607778	52.9122	0.000501791	45.7732
0.0610326	52.5081	0.000501304	45.4545
0.0612881	52.1063	0.000500578	45.1376
0.0615445	51.7067	0.000499615	44.8226
0.0618016	51.3093	0.000498414	44.5094
0.0620595	50.9142	0.000496977	44.1982
0.0623183	50.5217	0.000495304	43.8888
0.0625778	50.1318	0.000493394	43.5812
0.0628381	49.7448	0.000491247	43.2755
0.0630992	49.3609	0.000488859	42.9717
0.0633611	48.9801	0.000486229	42.6696
0.0636238	48.6023	0.000483354	42.3694
0.0638873	48.2274	0.000480234	42.0711
0.0641517	47.8552	0.000476869	41.7745
0.0644169	47.4855	0.00047326	41.4797
0.0646829	47.1184	0.000469407	41.1867
0.0649497	46.7536	0.000465312	40.8956
0.0652174	46.3914	0.000460976	40.6061
0.0654858	46.0318	0.000456401	40.3185
0.0657552	45.6751	0.000451587	40.0327
0.0660254	45.3213	0.000446534	39.7485
0.0662964	44.9707	0.000441243	39.4662
0.0665683	44.6233	0.000435713	39.1856
0.066841	44.2789	0.000429946	38.9067
0.0671146	43.9376	0.000423943	38.6295
0.0673891	43.5991	0.000417705	38.354
0.0676644	43.2632	0.000411235	38.0802
0.0679406	42.9298	0.000404534	37.8081
0.0682177	42.5987	0.000397607	37.5376
0.0684957	42.2698	0.000390458	37.2689
0.0687746	41.9428	0.000383091	37.0018
0.0690543	41.618	0.000375512	36.7363
0.069335	41.2954	0.000367725	36.4725
0.0696165	40.9751	0.000359735	36.2104
0.069899	40.6575	0.000351545	35.9498
0.0701824	40.3425	0.000343159	35.6909
0.0704667	40.0305	0.00033458	35.4337
0.0707519	39.7212	0.000325812	35.178
0.0710381	39.4147	0.000316858	34.9239
0.0713252	39.1108	0.000307725	34.6713
0.0716132	38.8094	0.000298419	34.4204
0.0719022	38.5103	0.000288946	34.171
0.0721921	38.2136	0.000279312	33.9232
0.072483	37.9191	0.000269524	33.6768
0.0727748	37.627	0.000259587	33.4321
0.0730677	37.3371	0.000249506	33.1888
0.0733614	37.0493	0.000239288	32.9471
0.0736562	36.7637	0.000228937	32.7068
0.073952	36.48	0.000218462	32.4681
0.0742487	36.1982	0.00020787	32.2309
0.0745465	35.918	0.000197171	31.9951
0.0748452	35.6396	0.000186375	31.7608
0.075145	35.3632	0.000175492	31.528
0.0754458	35.0888	0.00016453	31.2966
0.0757476	34.8169	0.000153499	31.0668
0.0760504	34.5476	0.000142403	30.8383
0.0763543	34.2811	0.000131248	30.6113
0.0766592	34.0174	0.00012004	30.3857
0.0769652	33.7564	0.000108784	30.1614
0.0772722	33.4978	9.74878e-05	29.9386
0.0775803	33.2413	8.616e-05	29.7172
0.0778895	32.9866	7.48119e-05	29.4971
0.0781998	32.7334	6.34551e-05	29.2784
0.0785111	32.4815	5.21015e-05	29.061
0.0788235	32.2307	4.07663e-05	28.845
0.0791371	31.9812	2.94634e-05	28.6304
0.0794518	31.7331	1.82067e-05	28.4171
0.0797675	31.4866	7.00878e-06	28.2051
0.0800845	31.2418	-4.11881e-06	27.9945
0.0804025	30.9991	-1.51654e-05	27.7852
0.0807217	30.7586	-2.61209e-05	27.5772
0.081042	30.5204	-3.69756e-05	27.3705
0.0813636	30.2846	-4.77201e-05	27.165
0.0816862	30.051	-5.83453e-05	26.9609
0.0820101	29.8197	-6.88423e-05	26.758
0.0823352	29.5903	-7.92017e-05	26.5564
0.0826614	29.3628	-8.94141e-05	26.356
0.0829889	29.1369	-9.9469e-05	26.1568
0.0833176	28.9124	-0.000109355	25.9589
0.0836475	28.6893	-0.000119062	25.7622
0.0839787	28.4674	-0.000128577	25.5667
0.0843111	28.247	-0.000137891	25.3724
0.0846447	28.0281	-0.000146996	25.1793
0.0849797	27.8108	-0.000155883	24.9874
0.0853159	27.5952	-0.000164546	24.7967
0.0856534	27.3814	-0.000172979	24.6072
0.0859922	27.1693	-0.000181173	24.4188
0.0863323	26.959	-0.000189122	24.2316
0.0866738	26.7504	-0.000196817	24.0455
0.0870165	26.5435	-0.000204249	23.8605
0.0873607	26.3383	-0.000211407	23.6767
0.0877062	26.1346	-0.000218282	23.494
0.088053	25.9326	-0.000224861	23.3124
0.0884013	25.7321	-0.000231134	23.1319
0.0887509	25.5331	-0.000237092	22.9525
0.089102	25.3357	-0.000242727	22.7742
0.0894545	25.1399	-0.000248032	22.5969
0.0898084	24.9456	-0.000253003	22.4207
0.0901638	24.753	-0.000257633	22.2456
0.0905206	24.5619	-0.000261917	22.0714
0.0908789	24.3721	-0.000265846	21.8984
0.0912387	24.1836	-0.000269409	21.7263
0.0916	23.996	-0.000272593	21.5553
0.0919629	23.8092	-0.000275381	21.3853
0.0923272	23.6232	-0.000277758	21.2163
0.0926932	23.4381	-0.000279707	21.0483
0.0930607	23.2541	-0.000281217	20.8813
0.0934297	23.0713	-0.000282284	20.7153
0.0938004	22.89	-0.000282898	20.5503
0.0941727	22.7104	-0.000283051	20.3863
0.0945466	22.5326	-0.00028271	20.2232
0.0949222	22.3564	-0.000281887	20.0611
0.0952994	22.1819	-0.000280576	19.9
0.0956783	22.0088	-0.000278775	19.7397
0.0960589	21.8371	-0.000276478	19.5804
0.0964413	21.6667	-0.000273673	19.422
0.0968253	21.4975	-0.000270357	19.2645
0.0972112	21.3295	-0.000266532	19.108
0.0975988	21.1626	-0.0002622	18.9523
0.0979882	20.997	-0.00025736	18.7974
0.0983794	20.8326	-0.000252006	18.6435
0.0987724	20.6693	-0.000246132	18.4905
0.0991673	20.507	-0.000239732	18.3383
0.0995641	20.3458	-0.000232797	18.1869
0.0999628	20.1854	-0.000225319	18.0364
0.100363	20.0258	-0.00021729	17.8868
0.100766	19.8668	-0.000208705	17.738
0.10117	19.7086	-0.00019956	17.59
0.101577	19.5511	-0.000189853	17.4429
0.101985	19.3946	-0.000179585	17.2966
0.102396	19.2391	-0.00016876	17.1511
0.102808	19.085	-0.000157383	17.0064
0.103223	18.9322	-0.00014546	16.8625
0.10364	18.7809	-0.000133	16.7194
0.104059	18.631	-0.000120009	16.5771
0.10448	18.4825	-0.000106496	16.4356
0.104903	18.3353	-9.24673e-05	16.2949
0.105328	18.1891	-7.79286e-05	16.1549
0.105756	18.0439	-6.28865e-05	16.0156
0.106186	17.8996	-4.73472e-05	15.8771
0.106618	17.756	-3.13177e-05	15.7394
0.107053	17.6132	-1.48058e-05	15.6023
0.10749	17.4712	2.17886e-06	15.466
