# 3D Evrard collapse
# Equivalent 1D problem with 1000 cell co-moving grid
# t = 0.73
# radius	density	radial velocity	pressure
5.46446e-05	5265.16	-6.90857e-05	271.326
0.000163947	5224.27	3.47711e-05	269.735
0.000273244	4948.36	-7.95402e-05	267.202
0.000382558	4226.97	-2.83033e-05	263.841
0.00049188	3059.0	-6.2221e-05	260.672
0.000601217	2217.96	-2.39579e-05	258.2
0.000710562	1801.46	-5.35282e-06	256.32
0.000819915	1562.53	-3.76346e-06	254.765
0.000929273	1404.92	-8.41425e-06	253.408
0.00103864	1293.21	-1.62265e-05	252.179
0.00114802	1209.45	-2.57274e-05	251.036
0.00125741	1142.44	-3.59436e-05	249.953
0.00136682	1085.49	-4.62709e-05	248.915
0.00147624	1035.02	-5.63273e-05	247.913
0.00158569	989.242	-6.59203e-05	246.942
0.00169516	947.338	-7.49704e-05	245.999
0.00180466	909.04	-8.34644e-05	245.079
0.00191419	874.379	-9.1454e-05	244.182
0.00202375	843.426	-9.90475e-05	243.304
0.00213334	816.049	-0.000106369	242.442
0.00224297	791.86	-0.000113521	241.595
0.00235263	770.303	-0.000120568	240.759
0.00246234	750.77	-0.000127541	239.933
0.00257208	732.691	-0.000134439	239.115
0.00268188	715.616	-0.000141236	238.305
0.00279171	699.284	-0.000147894	237.502
0.0029016	683.622	-0.000154393	236.705
0.00301154	668.66	-0.000160731	235.916
0.00312153	654.442	-0.000166923	235.132
0.00323157	640.974	-0.000172987	234.355
0.00334167	628.215	-0.000178938	233.584
0.00345183	616.112	-0.000184782	232.818
0.00356205	604.625	-0.000190522	232.057
0.00367233	593.75	-0.000196161	231.301
0.00378267	583.502	-0.000201716	230.549
0.00389309	573.866	-0.000207212	229.801
0.00400356	564.756	-0.000212672	229.058
0.00411411	556.027	-0.000218102	228.317
0.00422474	547.542	-0.000223486	227.58
0.00433543	539.236	-0.000228807	226.846
0.0044462	531.129	-0.000234054	226.115
0.00455705	523.279	-0.000239233	225.388
0.00466798	515.728	-0.000244359	224.664
0.00477899	508.47	-0.000249447	223.944
0.00489008	501.454	-0.000254506	223.226
0.00500126	494.613	-0.000259531	222.511
0.00511252	487.917	-0.00026451	221.8
0.00522388	481.394	-0.000269436	221.091
0.00533532	475.108	-0.000274316	220.385
0.00544686	469.105	-0.00027917	219.682
0.00555849	463.378	-0.000284013	218.982
0.00567022	457.881	-0.000288852	218.284
0.00578204	452.566	-0.000293685	217.589
0.00589396	447.406	-0.000298512	216.896
0.00600599	442.398	-0.000303335	216.205
0.00611812	437.537	-0.000308159	215.515
0.00623035	432.805	-0.000312991	214.828
0.0063427	428.172	-0.000317832	214.143
0.00645515	423.614	-0.000322681	213.46
0.00656771	419.118	-0.000327536	212.779
0.00668038	414.688	-0.000332395	212.1
0.00679317	410.334	-0.000337262	211.423
0.00690608	406.06	-0.000342144	210.748
0.0070191	401.86	-0.000347043	210.075
0.00713224	397.721	-0.000351962	209.404
0.00724551	393.636	-0.000356896	208.735
0.00735889	389.622	-0.000361844	208.069
0.00747241	385.711	-0.000366809	207.404
0.00758605	381.943	-0.0003718	206.742
0.00769981	378.341	-0.000376832	206.082
0.00781371	374.89	-0.000381921	205.423
0.00792775	371.547	-0.000387076	204.766
0.00804191	368.26	-0.000392295	204.111
0.00815622	364.995	-0.000397573	203.457
0.00827066	361.754	-0.000402904	202.804
0.00838524	358.565	-0.000408291	202.154
0.00849996	355.46	-0.000413745	201.505
0.00861483	352.45	-0.00041928	200.857
0.00872984	349.521	-0.000424906	200.211
0.00884499	346.639	-0.00043063	199.566
0.0089603	343.772	-0.000436452	198.923
0.00907576	340.896	-0.000442374	198.281
0.00919137	338.001	-0.000448376	197.641
0.00930713	335.148	-0.00045447	197.002
0.00942305	332.378	-0.000460671	196.365
0.00953913	329.702	-0.00046699	195.73
0.00965537	327.112	-0.00047344	195.096
0.00977177	324.592	-0.000480029	194.463
0.00988833	322.119	-0.000486764	193.832
0.0100051	319.673	-0.00049365	193.202
0.010122	317.236	-0.000500692	192.573
0.010239	314.796	-0.000507895	191.945
0.0103563	312.345	-0.000515251	191.319
0.0104737	309.915	-0.000522769	190.694
0.0105913	307.529	-0.000530462	190.071
0.010709	305.197	-0.000538341	189.449
0.0108269	302.918	-0.000546415	188.829
0.0109451	300.689	-0.000554691	188.21
0.0110634	298.513	-0.000563179	187.592
0.0111818	296.39	-0.00057189	186.976
0.0113005	294.317	-0.000580836	186.36
0.0114194	292.28	-0.000590026	185.746
0.0115384	290.265	-0.000599471	185.133
0.0116577	288.256	-0.000609176	184.521
0.0117771	286.246	-0.000619156	183.91
0.0118967	284.213	-0.000629406	183.3
0.0120165	282.169	-0.000639922	182.692
0.0121365	280.163	-0.000650727	182.085
0.0122568	278.212	-0.000661836	181.479
0.0123772	276.318	-0.000673266	180.875
0.0124978	274.475	-0.000685033	180.272
0.0126186	272.672	-0.000697149	179.669
0.0127397	270.899	-0.000709627	179.068
0.0128609	269.146	-0.000722479	178.468
0.0129824	267.408	-0.000735719	177.869
0.013104	265.683	-0.000749359	177.271
0.0132259	263.968	-0.000763414	176.674
0.013348	262.258	-0.000777898	176.078
0.0134704	260.549	-0.000792824	175.483
0.0135929	258.841	-0.000808206	174.89
0.0137157	257.134	-0.000824056	174.297
0.0138386	255.436	-0.000840389	173.706
0.0139619	253.756	-0.000857221	173.116
0.0140853	252.103	-0.000874569	172.527
0.014209	250.482	-0.000892453	171.94
0.0143329	248.898	-0.000910892	171.353
0.014457	247.351	-0.000929906	170.768
0.0145814	245.838	-0.000949518	170.184
0.014706	244.356	-0.000969748	169.6
0.0148309	242.894	-0.000990618	169.018
0.0149559	241.446	-0.00101215	168.437
0.0150813	240.002	-0.00103436	167.856
0.0152069	238.559	-0.00105727	167.277
0.0153327	237.108	-0.00108091	166.699
0.0154587	235.657	-0.00110528	166.121
0.0155851	234.222	-0.00113042	165.545
0.0157116	232.809	-0.00115635	164.97
0.0158385	231.421	-0.00118311	164.396
0.0159656	230.054	-0.00121071	163.823
0.0160929	228.707	-0.00123919	163.251
0.0162205	227.372	-0.00126858	162.68
0.0163484	226.047	-0.00129891	162.11
0.0164765	224.727	-0.0013302	161.542
0.0166049	223.413	-0.00136248	160.974
0.0167335	222.108	-0.00139578	160.407
0.0168625	220.814	-0.00143015	159.841
0.0169917	219.534	-0.00146561	159.277
0.0171211	218.268	-0.00150219	158.713
0.0172509	217.014	-0.00153995	158.15
0.0173809	215.77	-0.00157891	157.589
0.0175112	214.536	-0.0016191	157.029
0.0176418	213.313	-0.00166058	156.469
0.0177726	212.104	-0.00170338	155.911
0.0179038	210.908	-0.00174754	155.354
0.0180352	209.725	-0.00179312	154.798
0.0181669	208.55	-0.00184015	154.242
0.0182989	207.382	-0.00188868	153.688
0.0184312	206.221	-0.00193875	153.136
0.0185638	205.07	-0.00199042	152.584
0.0186966	203.931	-0.00204374	152.033
0.0188298	202.808	-0.00209876	151.483
0.0189633	201.701	-0.00215553	150.935
0.0190971	200.607	-0.00221412	150.387
0.0192311	199.521	-0.00227459	149.841
0.0193655	198.438	-0.00233698	149.295
0.0195002	197.356	-0.00240137	148.751
0.0196352	196.271	-0.00246782	148.208
0.0197705	195.185	-0.00253637	147.666
0.0199061	194.108	-0.0026071	147.126
0.020042	193.045	-0.00268009	146.586
0.0201782	191.999	-0.0027554	146.048
0.0203148	190.968	-0.00283312	145.511
0.0204516	189.95	-0.00291331	144.975
0.0205888	188.94	-0.00299606	144.44
0.0207263	187.936	-0.00308145	143.906
0.0208641	186.938	-0.00316955	143.374
0.0210023	185.946	-0.00326045	142.843
0.0211407	184.961	-0.00335424	142.313
0.0212795	183.984	-0.003451	141.784
0.0214186	183.016	-0.00355084	141.257
0.0215581	182.056	-0.00365384	140.731
0.0216979	181.101	-0.00376011	140.206
0.021838	180.149	-0.00386974	139.682
0.0219784	179.198	-0.00398284	139.16
0.0221192	178.244	-0.0040995	138.639
0.0222604	177.291	-0.00421983	138.12
0.0224018	176.345	-0.00434394	137.602
0.0225436	175.412	-0.00447193	137.086
0.0226858	174.495	-0.00460394	136.57
0.0228283	173.593	-0.00474007	136.057
0.0229711	172.705	-0.00488044	135.545
0.0231143	171.828	-0.00502518	135.034
0.0232578	170.958	-0.00517441	134.524
0.0234017	170.092	-0.00532826	134.016
0.0235459	169.226	-0.00548684	133.51
0.0236905	168.361	-0.00565029	133.005
0.0238355	167.498	-0.00581872	132.502
0.0239808	166.64	-0.00599227	132.0
0.0241264	165.792	-0.00617108	131.499
0.0242724	164.954	-0.00635526	131.001
0.0244188	164.127	-0.00654496	130.504
0.0245655	163.309	-0.00674031	130.008
0.0247126	162.496	-0.00694143	129.514
0.02486	161.687	-0.00714846	129.022
0.0250079	160.878	-0.00736151	128.531
0.025156	160.069	-0.00758072	128.042
0.0253046	159.254	-0.0078062	127.555
0.0254535	158.433	-0.00803805	127.07
0.0256028	157.622	-0.00827639	126.586
0.0257524	156.825	-0.00852132	126.104
0.0259024	156.046	-0.00877295	125.624
0.0260528	155.283	-0.00903138	125.145
0.0262036	154.533	-0.0092967	124.669
0.0263547	153.792	-0.00956897	124.194
0.0265062	153.056	-0.00984827	123.721
0.0266581	152.323	-0.0101346	123.249
0.0268104	151.59	-0.0104281	122.779
0.026963	150.856	-0.0107288	122.311
0.027116	150.113	-0.0110366	121.844
0.0272694	149.352	-0.0113516	121.38
0.0274232	148.587	-0.0116737	120.917
0.0275773	147.839	-0.0120029	120.456
0.0277319	147.108	-0.0123391	119.997
0.0278868	146.394	-0.0126823	119.539
0.0280421	145.694	-0.0130324	119.083
0.0281978	145.005	-0.0133892	118.629
0.0283539	144.322	-0.0137526	118.176
0.0285103	143.645	-0.0141224	117.725
0.0286672	142.969	-0.0144985	117.275
0.0288244	142.295	-0.0148806	116.826
0.028982	141.621	-0.0152685	116.379
0.0291401	140.947	-0.0156619	115.934
0.0292985	140.27	-0.0160605	115.489
0.0294573	139.592	-0.016464	115.046
0.0296165	138.918	-0.0168721	114.604
0.0297761	138.249	-0.0172843	114.163
0.029936	137.586	-0.0177002	113.724
0.0300964	136.929	-0.0181195	113.285
0.0302572	136.28	-0.0185418	112.847
0.0304184	135.636	-0.0189665	112.41
0.03058	134.997	-0.0193932	111.974
0.030742	134.361	-0.0198214	111.538
0.0309044	133.729	-0.0202506	111.103
0.0310672	133.098	-0.0206802	110.668
0.0312304	132.469	-0.0211096	110.234
0.031394	131.843	-0.021538	109.8
0.031558	131.218	-0.0219651	109.366
0.0317225	130.595	-0.0223901	108.932
0.0318873	129.975	-0.0228126	108.499
0.0320526	129.356	-0.0232322	108.065
0.0322183	128.74	-0.0236485	107.631
0.0323844	128.126	-0.024061	107.197
0.032551	127.516	-0.0244693	106.763
0.0327179	126.91	-0.0248731	106.328
0.0328853	126.309	-0.0252718	105.894
0.0330532	125.713	-0.0256653	105.458
0.0332214	125.122	-0.0260531	105.023
0.0333901	124.535	-0.026435	104.587
0.0335593	123.95	-0.0268107	104.15
0.0337289	123.365	-0.0271799	103.713
0.0338989	122.781	-0.0275424	103.275
0.0340694	122.195	-0.0278981	102.836
0.0342403	121.606	-0.0282466	102.397
0.0344116	121.012	-0.0285878	101.958
0.0345835	120.419	-0.0289217	101.518
0.0347558	119.83	-0.029248	101.077
0.0349285	119.246	-0.0295667	100.635
0.0351017	118.667	-0.0298776	100.193
0.0352754	118.091	-0.0301807	99.7505
0.0354495	117.518	-0.0304759	99.3071
0.0356241	116.948	-0.0307632	98.863
0.0357992	116.38	-0.0310425	98.4184
0.0359748	115.814	-0.0313139	97.973
0.0361508	115.251	-0.0315772	97.5271
0.0363273	114.691	-0.0318326	97.0805
0.0365043	114.131	-0.03208	96.6333
0.0366818	113.572	-0.0323195	96.1855
0.0368598	113.013	-0.0325512	95.7371
0.0370382	112.452	-0.032775	95.2882
0.0372172	111.889	-0.032991	94.8388
0.0373967	111.321	-0.0331994	94.3889
0.0375766	110.752	-0.0334001	93.9386
0.0377571	110.187	-0.0335934	93.4879
0.037938	109.626	-0.0337793	93.0368
0.0381195	109.071	-0.0339579	92.5854
0.0383015	108.521	-0.0341293	92.1335
0.038484	107.974	-0.0342937	91.6814
0.038667	107.43	-0.0344511	91.2289
0.0388506	106.889	-0.0346017	90.7762
0.0390346	106.349	-0.0347456	90.3231
0.0392192	105.811	-0.034883	89.8699
0.0394043	105.275	-0.0350141	89.4164
0.0395899	104.74	-0.0351388	88.9628
0.0397761	104.206	-0.0352575	88.509
0.0399628	103.671	-0.0353701	88.0551
0.04015	103.135	-0.035477	87.6011
0.0403378	102.599	-0.0355783	87.1472
0.0405261	102.061	-0.0356741	86.6932
0.0407149	101.524	-0.0357646	86.2393
0.0409043	100.988	-0.0358499	85.7855
0.0410943	100.456	-0.0359301	85.3319
0.0412848	99.9269	-0.0360054	84.8783
0.0414758	99.4011	-0.036076	84.425
0.0416674	98.8781	-0.036142	83.9718
0.0418596	98.3574	-0.0362035	83.5188
0.0420523	97.8381	-0.0362608	83.0661
0.0422455	97.3195	-0.0363138	82.6137
0.0424394	96.8008	-0.0363628	82.1616
0.0426338	96.2817	-0.0364079	81.7098
0.0428288	95.7617	-0.0364493	81.2584
0.0430243	95.2399	-0.0364869	80.8075
0.0432204	94.7149	-0.0365211	80.357
0.0434171	94.1902	-0.0365519	79.907
0.0436143	93.6684	-0.0365794	79.4576
0.0438122	93.1502	-0.0366037	79.0087
0.0440106	92.6359	-0.036625	78.5604
0.0442096	92.1252	-0.0366433	78.1127
0.0444092	91.6176	-0.0366589	77.6656
0.0446093	91.1125	-0.0366717	77.2191
0.0448101	90.609	-0.0366819	76.7733
0.0450114	90.1065	-0.0366896	76.3281
0.0452133	89.6044	-0.0366948	75.8837
0.0454159	89.1023	-0.0366975	75.4399
0.045619	88.5998	-0.0366978	74.9969
0.0458227	88.0967	-0.0366962	74.5547
0.046027	87.5925	-0.0366926	74.1133
0.0462319	87.0859	-0.0366869	73.6728
0.0464374	86.5761	-0.0366793	73.2331
0.0466435	86.0669	-0.0366697	72.7944
0.0468502	85.5604	-0.0366583	72.3567
0.0470576	85.0574	-0.0366452	71.9199
0.0472655	84.5584	-0.0366304	71.4841
0.0474741	84.0637	-0.0366139	71.0493
0.0476832	83.5728	-0.0365959	70.6154
0.047893	83.085	-0.0365763	70.1826
0.0481034	82.5993	-0.0365553	69.7507
0.0483144	82.1146	-0.0365329	69.3199
0.048526	81.63	-0.036509	68.8901
0.0487383	81.1449	-0.0364839	68.4613
0.0489511	80.6581	-0.0364574	68.0337
0.0491646	80.1663	-0.0364297	67.6072
0.0493788	79.6643	-0.0364009	67.1819
0.0495935	79.1444	-0.036371	66.7579
0.0498089	78.5959	-0.03634	66.3353
0.0500249	78.0062	-0.036308	65.9145
0.0502416	77.362	-0.036275	65.4955
0.0504588	76.6519	-0.0362409	65.0789
0.0506768	75.8831	-0.0362053	64.665
0.0508953	75.133	-0.0361685	64.254
0.0511145	74.4181	-0.0361308	63.8457
0.0513343	73.7363	-0.0360922	63.4399
0.0515548	73.0848	-0.0360528	63.0367
0.051776	72.46	-0.0360125	62.6358
0.0519977	71.8585	-0.0359715	62.2371
0.0522201	71.2764	-0.0359297	61.8406
0.0524432	70.7105	-0.0358872	61.4462
0.0526669	70.1579	-0.035844	61.0538
0.0528913	69.6164	-0.0358002	60.6634
0.0531163	69.0846	-0.0357556	60.2749
0.053342	68.5611	-0.0357104	59.8883
0.0535683	68.0453	-0.0356646	59.5037
0.0537953	67.5365	-0.0356182	59.121
0.054023	67.034	-0.0355712	58.7401
0.0542513	66.5371	-0.0355236	58.3611
0.0544803	66.0449	-0.0354755	57.9839
0.0547099	65.5566	-0.0354268	57.6086
0.0549403	65.0712	-0.0353777	57.2351
0.0551712	64.588	-0.035328	56.8635
0.0554029	64.1062	-0.0352778	56.4938
0.0556352	63.6255	-0.0352272	56.1259
0.0558682	63.1455	-0.0351761	55.76
0.0561019	62.6665	-0.0351246	55.3959
0.0563362	62.189	-0.0350726	55.0338
0.0565713	61.7139	-0.0350202	54.6736
0.056807	61.2423	-0.0349674	54.3154
0.0570433	60.7751	-0.0349143	53.959
0.0572804	60.3134	-0.0348607	53.6046
0.0575182	59.8576	-0.0348068	53.2521
0.0577566	59.4079	-0.0347525	52.9015
0.0579957	58.964	-0.0346979	52.5528
0.0582355	58.5255	-0.0346431	52.2059
0.0584761	58.0916	-0.0345879	51.8608
0.0587173	57.6617	-0.0345324	51.5176
0.0589591	57.235	-0.0344767	51.1762
0.0592017	56.8113	-0.0344207	50.8367
0.059445	56.3902	-0.0343645	50.4989
0.059689	55.9714	-0.034308	50.163
0.0599337	55.555	-0.0342513	49.8289
0.0601791	55.1407	-0.0341944	49.4967
0.0604252	54.7287	-0.0341373	49.1662
0.060672	54.3189	-0.0340801	48.8376
0.0609195	53.9115	-0.0340226	48.5109
0.0611677	53.5066	-0.033965	48.1859
0.0614166	53.1044	-0.0339072	47.8628
0.0616663	52.7053	-0.0338493	47.5415
0.0619166	52.3094	-0.0337912	47.2221
0.0621677	51.9167	-0.0337331	46.9044
0.0624195	51.5272	-0.0336748	46.5886
0.062672	51.1407	-0.0336165	46.2746
0.0629252	50.757	-0.033558	45.9623
0.0631791	50.3758	-0.0334996	45.6519
0.0634338	49.9971	-0.033441	45.3432
0.0636892	49.6208	-0.0333824	45.0363
0.0639453	49.2469	-0.0333238	44.7313
0.0642022	48.8758	-0.0332651	44.428
0.0644598	48.5076	-0.0332064	44.1264
0.0647181	48.1426	-0.0331477	43.8267
0.0649772	47.7808	-0.033089	43.5287
0.065237	47.4224	-0.0330303	43.2324
0.0654975	47.0672	-0.0329717	42.9379
0.0657588	46.715	-0.0329131	42.6452
0.0660208	46.3658	-0.0328545	42.3541
0.0662836	46.0191	-0.0327959	42.0648
0.0665471	45.675	-0.0327375	41.7772
0.0668114	45.3333	-0.0326791	41.4913
0.0670764	44.9937	-0.0326207	41.2071
0.0673422	44.6563	-0.0325624	40.9246
0.0676087	44.321	-0.0325042	40.6438
0.067876	43.9879	-0.0324461	40.3647
0.068144	43.6571	-0.0323881	40.0872
0.0684128	43.3289	-0.0323301	39.8115
0.0686824	43.0036	-0.0322723	39.5374
0.0689527	42.6814	-0.0322145	39.265
0.0692238	42.3622	-0.0321568	38.9942
0.0694957	42.046	-0.0320993	38.7251
0.0697683	41.7325	-0.0320418	38.4577
0.0700418	41.4217	-0.0319845	38.1918
0.0703159	41.1132	-0.0319272	37.9276
0.0705909	40.8071	-0.0318701	37.6649
0.0708667	40.5031	-0.031813	37.4039
0.0711432	40.2015	-0.031756	37.1445
0.0714205	39.9022	-0.0316992	36.8867
0.0716987	39.6052	-0.0316424	36.6304
0.0719776	39.3105	-0.0315856	36.3758
0.0722573	39.018	-0.031529	36.1227
0.0725378	38.7275	-0.0314724	35.8712
0.0728191	38.4389	-0.0314159	35.6212
0.0731011	38.1522	-0.0313595	35.3728
0.073384	37.8673	-0.0313031	35.1259
0.0736677	37.5844	-0.0312467	34.8806
0.0739523	37.3037	-0.0311904	34.6369
0.0742376	37.0256	-0.0311341	34.3946
0.0745237	36.7503	-0.0310778	34.1539
0.0748107	36.478	-0.0310216	33.9147
0.0750984	36.2087	-0.0309654	33.677
0.075387	35.9423	-0.0309093	33.4407
0.0756765	35.6783	-0.0308531	33.2059
0.0759667	35.4164	-0.030797	32.9726
0.0762578	35.1563	-0.0307409	32.7408
0.0765497	34.8976	-0.0306849	32.5104
0.0768424	34.6401	-0.0306288	32.2814
0.077136	34.3839	-0.0305728	32.0539
0.0774305	34.1289	-0.0305168	31.8278
0.0777257	33.8753	-0.0304608	31.6032
0.0780219	33.6234	-0.0304048	31.3799
0.0783188	33.3735	-0.0303489	31.1582
0.0786167	33.1257	-0.0302929	30.9378
0.0789154	32.8803	-0.030237	30.7188
0.0792149	32.6374	-0.0301811	30.5012
0.0795153	32.3969	-0.0301252	30.285
0.0798166	32.1589	-0.0300694	30.0702
0.0801188	31.9231	-0.0300136	29.8568
0.0804218	31.6895	-0.0299579	29.6447
0.0807257	31.4578	-0.0299022	29.4339
0.0810305	31.2279	-0.0298465	29.2244
0.0813362	30.9997	-0.029791	29.0163
0.0816428	30.7729	-0.0297354	28.8095
0.0819502	30.5474	-0.02968	28.604
0.0822586	30.3232	-0.0296246	28.3998
0.0825678	30.1004	-0.0295692	28.1969
0.082878	29.8792	-0.0295139	27.9953
0.0831891	29.6598	-0.0294587	27.795
0.0835011	29.4423	-0.0294036	27.596
0.083814	29.2268	-0.0293485	27.3982
0.0841278	29.0132	-0.0292935	27.2017
0.0844426	28.8015	-0.0292386	27.0065
0.0847582	28.5915	-0.0291838	26.8125
0.0850749	28.3832	-0.0291292	26.6197
0.0853924	28.1766	-0.0290746	26.4281
0.0857109	27.9716	-0.0290201	26.2378
0.0860304	27.7684	-0.0289658	26.0486
0.0863508	27.5669	-0.0289116	25.8607
0.0866721	27.367	-0.0288575	25.6739
0.0869945	27.1686	-0.0288036	25.4883
0.0873178	26.9718	-0.0287499	25.3039
0.087642	26.7766	-0.0286963	25.1207
0.0879673	26.5829	-0.0286429	24.9386
0.0882935	26.3908	-0.0285897	24.7576
0.0886207	26.2003	-0.0285368	24.5778
0.0889489	26.0113	-0.028484	24.3992
0.0892781	25.8236	-0.0284314	24.2216
0.0896083	25.6371	-0.0283791	24.0452
0.0899395	25.4514	-0.028327	23.8699
0.0902718	25.2666	-0.0282752	23.6957
0.090605	25.0827	-0.0282236	23.5226
0.0909393	24.8997	-0.0281722	23.3506
0.0912746	24.718	-0.0281211	23.1797
0.091611	24.5378	-0.0280703	23.0099
0.0919484	24.3593	-0.0280197	22.8411
0.0922868	24.1827	-0.0279695	22.6735
0.0926263	24.0081	-0.0279195	22.5069
0.0929669	23.8353	-0.0278698	22.3413
0.0933085	23.6641	-0.0278204	22.1768
0.0936512	23.4944	-0.0277714	22.0133
0.0939951	23.3261	-0.0277227	21.8508
0.0943399	23.1589	-0.0276743	21.6894
0.0946859	22.9929	-0.0276262	21.5289
0.095033	22.8281	-0.0275785	21.3694
0.0953812	22.6645	-0.0275312	21.211
0.0957306	22.5021	-0.0274841	21.0535
0.096081	22.3409	-0.0274375	20.897
0.0964326	22.181	-0.0273912	20.7414
0.0967853	22.0222	-0.0273452	20.5869
0.0971392	21.8645	-0.0272997	20.4332
0.0974942	21.7078	-0.0272545	20.2806
0.0978504	21.5521	-0.0272097	20.1288
0.0982078	21.3972	-0.0271653	19.9781
0.0985663	21.2432	-0.0271213	19.8282
0.0989261	21.0899	-0.0270777	19.6793
0.099287	20.9375	-0.0270344	19.5313
0.0996492	20.786	-0.0269916	19.3842
0.100013	20.6355	-0.0269492	19.2381
0.100377	20.4863	-0.0269072	19.0928
0.100743	20.3385	-0.0268655	18.9484
0.10111	20.1922	-0.0268243	18.805
0.101478	20.0475	-0.0267836	18.6624
0.101848	19.9044	-0.0267432	18.5207
0.102219	19.7625	-0.0267033	18.3798
0.102591	19.6219	-0.0266638	18.2398
0.102964	19.4824	-0.0266248	18.1007
0.103339	19.3437	-0.0265862	17.9623
