# 3D Evrard collapse
# Equivalent 1D problem with 1000 cell co-moving grid
# t = 1.0
# radius	density	radial velocity	pressure
5.81569e-05	5719.77	-8.44465e-05	312.746
0.000174487	5689.33	3.33781e-05	310.616
0.000290812	5595.53	-0.000127674	307.108
0.000407161	5393.94	-8.13189e-05	301.859
0.000523528	4970.81	-7.13982e-05	295.505
0.00063991	4227.56	-0.000151637	288.849
0.000756323	3226.19	-0.000173331	282.877
0.000872771	2393.78	-0.000111896	278.217
0.000989243	1895.55	-5.94318e-05	274.724
0.00110573	1599.26	-3.21957e-05	271.963
0.00122223	1415.38	-2.34503e-05	269.658
0.00133873	1292.57	-2.61005e-05	267.648
0.00145524	1202.93	-3.44334e-05	265.839
0.00157177	1131.56	-4.59189e-05	264.175
0.0016883	1070.94	-5.88458e-05	262.623
0.00180486	1017.44	-7.22431e-05	261.163
0.00192143	969.474	-8.56135e-05	259.78
0.00203802	926.468	-9.86857e-05	258.463
0.00215464	888.322	-0.000111421	257.203
0.00227129	854.902	-0.000123897	255.99
0.00238797	825.785	-0.000136217	254.819
0.00250468	800.281	-0.000148445	253.681
0.00262143	777.579	-0.000160606	252.571
0.00273822	756.894	-0.000172682	251.485
0.00285505	737.587	-0.000184618	250.421
0.00297192	719.264	-0.00019635	249.377
0.00308884	701.794	-0.000207838	248.35
0.00320581	685.193	-0.00021908	247.34
0.00332283	669.505	-0.000230098	246.345
0.0034399	654.718	-0.00024092	245.365
0.00355704	640.772	-0.000251565	244.398
0.00367423	627.597	-0.000262038	243.443
0.00379148	615.158	-0.000272344	242.5
0.0039088	603.464	-0.000282498	241.567
0.00402618	592.515	-0.000292535	240.643
0.00414363	582.236	-0.000302492	239.729
0.00426115	572.467	-0.000312382	238.822
0.00437875	563.036	-0.000322194	237.922
0.00449642	553.845	-0.000331903	237.03
0.00461417	544.898	-0.000341494	236.145
0.004732	536.252	-0.000350975	235.266
0.00484991	527.953	-0.000360366	234.395
0.0049679	519.984	-0.000369687	233.529
0.00508598	512.282	-0.000378943	232.669
0.00520415	504.782	-0.000388125	231.816
0.00532241	497.472	-0.000397218	230.968
0.00544076	490.398	-0.000406221	230.125
0.00555921	483.618	-0.00041515	229.288
0.00567775	477.155	-0.000424025	228.456
0.00579639	470.982	-0.000432859	227.628
0.00591513	465.049	-0.000441653	226.805
0.00603398	459.32	-0.000450405	225.986
0.00615293	453.776	-0.000459117	225.171
0.00627199	448.406	-0.000467794	224.36
0.00639115	443.188	-0.000476439	223.553
0.00651043	438.092	-0.000485053	222.749
0.00662982	433.09	-0.000493633	221.948
0.00674933	428.17	-0.000502173	221.151
0.00686895	423.335	-0.000510672	220.358
0.00698869	418.588	-0.000519133	219.568
0.00710856	413.929	-0.000527558	218.782
0.00722854	409.344	-0.000535948	217.999
0.00734865	404.824	-0.000544296	217.219
0.00746889	400.377	-0.000552597	216.443
0.00758926	396.034	-0.000560846	215.67
0.00770976	391.838	-0.000569049	214.901
0.00783039	387.817	-0.000577221	214.135
0.00795115	383.969	-0.000585375	213.371
0.00807206	380.253	-0.000593518	212.611
0.0081931	376.62	-0.000601647	211.853
0.00831428	373.035	-0.000609752	211.097
0.0084356	369.493	-0.000617823	210.345
0.00855707	366.017	-0.000625858	209.594
0.00867869	362.633	-0.000633865	208.847
0.00880045	359.348	-0.000641851	208.101
0.00892237	356.144	-0.000649824	207.358
0.00904444	352.986	-0.000657782	206.617
0.00916666	349.841	-0.00066572	205.879
0.00928903	346.694	-0.000673623	205.142
0.00941157	343.566	-0.000681484	204.409
0.00953426	340.498	-0.000689304	203.677
0.00965712	337.519	-0.000697091	202.948
0.00978014	334.639	-0.000704853	202.221
0.00990333	331.848	-0.000712596	201.497
0.0100267	329.126	-0.000720323	200.774
0.0101502	326.444	-0.000728034	200.053
0.0102739	323.779	-0.000735723	199.334
0.0103978	321.118	-0.000743385	198.617
0.0105218	318.461	-0.000751013	197.902
0.010646	315.824	-0.000758604	197.19
0.0107704	313.226	-0.00076616	196.479
0.010895	310.68	-0.000773683	195.771
0.0110198	308.192	-0.000781175	195.064
0.0111447	305.766	-0.000788637	194.359
0.0112699	303.404	-0.000796072	193.657
0.0113952	301.103	-0.000803484	192.956
0.0115207	298.854	-0.000810874	192.256
0.0116464	296.641	-0.000818245	191.559
0.0117723	294.446	-0.000825595	190.863
0.0118984	292.257	-0.000832921	190.168
0.0120247	290.062	-0.000840221	189.476
0.0121512	287.854	-0.000847477	188.785
0.0122779	285.669	-0.000854692	188.096
0.0124048	283.53	-0.00086187	187.408
0.0125319	281.448	-0.000869018	186.723
0.0126592	279.422	-0.000876139	186.039
0.0127868	277.445	-0.000883234	185.357
0.0129145	275.506	-0.000890304	184.676
0.0130424	273.598	-0.000897348	183.997
0.0131706	271.712	-0.000904366	183.319
0.013299	269.842	-0.000911356	182.642
0.0134276	267.983	-0.000918319	181.967
0.0135564	266.13	-0.000925251	181.294
0.0136855	264.277	-0.000932151	180.622
0.0138147	262.427	-0.000939015	179.951
0.0139442	260.581	-0.00094584	179.283
0.0140739	258.749	-0.000952625	178.615
0.0142039	256.939	-0.00095937	177.95
0.0143341	255.16	-0.000966074	177.286
0.0144645	253.419	-0.000972739	176.623
0.0145952	251.72	-0.000979368	175.962
0.0147261	250.061	-0.000985961	175.302
0.0148572	248.438	-0.000992521	174.644
0.0149886	246.843	-0.000999049	173.987
0.0151202	245.266	-0.00100554	173.331
0.0152521	243.697	-0.001012	172.676
0.0153842	242.13	-0.00101842	172.023
0.0155165	240.562	-0.0010248	171.371
0.0156491	239.0	-0.00103112	170.721
0.015782	237.453	-0.0010374	170.071
0.0159151	235.927	-0.00104363	169.423
0.0160485	234.426	-0.00104981	168.777
0.0161821	232.947	-0.00105594	168.131
0.016316	231.487	-0.00106203	167.487
0.0164502	230.041	-0.00106807	166.844
0.0165846	228.606	-0.00107406	166.203
0.0167193	227.181	-0.00108	165.562
0.0168543	225.765	-0.00108588	164.923
0.0169895	224.362	-0.0010917	164.285
0.017125	222.971	-0.00109747	163.649
0.0172608	221.594	-0.00110318	163.013
0.0173968	220.23	-0.00110882	162.379
0.0175332	218.878	-0.00111441	161.746
0.0176698	217.54	-0.00111993	161.114
0.0178067	216.216	-0.00112538	160.484
0.0179438	214.906	-0.00113077	159.854
0.0180813	213.61	-0.00113609	159.226
0.018219	212.326	-0.00114134	158.599
0.0183571	211.051	-0.00114652	157.973
0.0184954	209.785	-0.00115163	157.348
0.018634	208.53	-0.00115666	156.725
0.0187729	207.287	-0.00116161	156.102
0.0189121	206.06	-0.00116649	155.481
0.0190517	204.85	-0.00117128	154.861
0.0191915	203.655	-0.00117599	154.242
0.0193316	202.471	-0.00118063	153.624
0.019472	201.295	-0.00118518	153.007
0.0196127	200.121	-0.00118965	152.391
0.0197538	198.948	-0.00119403	151.777
0.0198951	197.777	-0.00119832	151.163
0.0200367	196.612	-0.00120251	150.55
0.0201787	195.459	-0.0012066	149.939
0.020321	194.319	-0.00121059	149.329
0.0204636	193.195	-0.00121449	148.72
0.0206065	192.083	-0.00121829	148.112
0.0207498	190.983	-0.00122199	147.505
0.0208933	189.892	-0.00122559	146.899
0.0210372	188.808	-0.00122909	146.294
0.0211814	187.733	-0.00123247	145.69
0.021326	186.666	-0.00123575	145.088
0.0214709	185.609	-0.00123892	144.486
0.0216161	184.561	-0.00124198	143.885
0.0217616	183.52	-0.00124493	143.286
0.0219075	182.484	-0.00124777	142.687
0.0220537	181.45	-0.0012505	142.09
0.0222003	180.415	-0.0012531	141.493
0.0223472	179.382	-0.00125558	140.898
0.0224944	178.352	-0.00125794	140.304
0.022642	177.331	-0.00126017	139.71
0.02279	176.322	-0.00126228	139.118
0.0229383	175.329	-0.00126425	138.527
0.0230869	174.351	-0.00126611	137.937
0.0232359	173.386	-0.00126784	137.348
0.0233853	172.431	-0.00126944	136.761
0.023535	171.481	-0.00127092	136.174
0.0236851	170.534	-0.00127227	135.588
0.0238355	169.59	-0.00127349	135.003
0.0239863	168.649	-0.00127457	134.419
0.0241375	167.713	-0.00127551	133.836
0.024289	166.785	-0.00127632	133.254
0.0244409	165.866	-0.00127699	132.673
0.0245932	164.958	-0.00127752	132.094
0.0247458	164.058	-0.00127791	131.515
0.0248988	163.164	-0.00127818	130.937
0.0250522	162.275	-0.0012783	130.36
0.025206	161.386	-0.00127828	129.784
0.0253602	160.498	-0.00127812	129.209
0.0255147	159.606	-0.00127782	128.635
0.0256696	158.711	-0.00127736	128.063
0.0258249	157.823	-0.00127675	127.491
0.0259806	156.947	-0.00127599	126.92
0.0261367	156.086	-0.00127507	126.351
0.0262932	155.239	-0.00127402	125.782
0.0264501	154.406	-0.00127282	125.215
0.0266074	153.582	-0.00127148	124.648
0.026765	152.764	-0.00126999	124.083
0.0269231	151.948	-0.00126835	123.518
0.0270816	151.134	-0.00126657	122.954
0.0272405	150.318	-0.00126464	122.391
0.0273997	149.498	-0.00126257	121.83
0.0275594	148.665	-0.00126033	121.269
0.0277195	147.827	-0.00125791	120.709
0.02788	147.001	-0.00125533	120.151
0.028041	146.19	-0.0012526	119.593
0.0282023	145.394	-0.00124971	119.037
0.0283641	144.611	-0.00124666	118.482
0.0285262	143.838	-0.00124347	117.928
0.0286888	143.073	-0.00124012	117.374
0.0288518	142.313	-0.00123662	116.822
0.0290153	141.556	-0.00123297	116.27
0.0291792	140.8	-0.00122916	115.72
0.0293435	140.044	-0.00122519	115.17
0.0295082	139.287	-0.00122107	114.622
0.0296734	138.529	-0.00121678	114.075
0.029839	137.772	-0.00121233	113.528
0.030005	137.019	-0.00120771	112.983
0.0301715	136.272	-0.00120294	112.439
0.0303384	135.531	-0.001198	111.896
0.0305057	134.797	-0.0011929	111.354
0.0306735	134.069	-0.00118765	110.812
0.0308418	133.347	-0.00118224	110.272
0.0310105	132.63	-0.00117667	109.733
0.0311796	131.916	-0.00117095	109.195
0.0313492	131.206	-0.00116507	108.658
0.0315193	130.499	-0.00115903	108.123
0.0316898	129.795	-0.00115283	107.588
0.0318607	129.093	-0.00114647	107.054
0.0320322	128.395	-0.00113996	106.521
0.032204	127.699	-0.00113329	105.989
0.0323764	127.005	-0.00112647	105.459
0.0325492	126.315	-0.00111948	104.929
0.0327225	125.629	-0.00111234	104.401
0.0328962	124.948	-0.00110504	103.873
0.0330705	124.273	-0.00109759	103.347
0.0332452	123.603	-0.00108998	102.821
0.0334203	122.94	-0.00108221	102.297
0.033596	122.283	-0.0010743	101.774
0.0337721	121.63	-0.00106624	101.252
0.0339487	120.981	-0.00105803	100.731
0.0341258	120.333	-0.00104968	100.211
0.0343034	119.687	-0.00104118	99.6915
0.0344814	119.04	-0.00103253	99.1735
0.03466	118.393	-0.00102373	98.6566
0.034839	117.745	-0.00101478	98.1408
0.0350186	117.1	-0.00100568	97.6261
0.0351986	116.459	-0.000996431	97.1125
0.0353791	115.822	-0.000987041	96.6001
0.0355601	115.19	-0.000977508	96.0887
0.0357417	114.564	-0.000967836	95.5785
0.0359237	113.941	-0.000958026	95.0694
0.0361062	113.323	-0.000948079	94.5613
0.0362893	112.71	-0.000937998	94.0544
0.0364728	112.101	-0.000927784	93.5486
0.0366569	111.495	-0.000917441	93.0438
0.0368414	110.893	-0.000906971	92.5402
0.0370265	110.292	-0.000896375	92.0376
0.0372121	109.693	-0.000885656	91.5362
0.0373982	109.094	-0.000874814	91.0359
0.0375849	108.495	-0.000863854	90.5367
0.037772	107.894	-0.000852771	90.0386
0.0379597	107.293	-0.000841558	89.5418
0.0381479	106.694	-0.000830224	89.0461
0.0383367	106.1	-0.000818772	88.5516
0.0385259	105.511	-0.000807208	88.0583
0.0387157	104.926	-0.000795536	87.5662
0.0389061	104.347	-0.00078376	87.0753
0.0390969	103.773	-0.000771883	86.5855
0.0392884	103.202	-0.000759908	86.0969
0.0394803	102.635	-0.000747839	85.6094
0.0396728	102.072	-0.000735679	85.1231
0.0398658	101.512	-0.000723432	84.638
0.0400594	100.953	-0.000711102	84.154
0.0402536	100.397	-0.000698694	83.6712
0.0404482	99.8406	-0.000686209	83.1896
0.0406435	99.2849	-0.00067365	82.7092
0.0408393	98.7293	-0.000661019	82.2299
0.0410356	98.1743	-0.000648317	81.7519
0.0412325	97.6206	-0.000635549	81.2752
0.04143	97.0692	-0.000622719	80.7996
0.041628	96.5209	-0.000609832	80.3253
0.0418266	95.9761	-0.000596894	79.8523
0.0420257	95.4351	-0.000583912	79.3805
0.0422255	94.8977	-0.000570892	78.91
0.0424258	94.3635	-0.000557839	78.4406
0.0426266	93.8316	-0.000544759	77.9726
0.0428281	93.3014	-0.000531657	77.5057
0.0430301	92.7722	-0.000518537	77.0402
0.0432327	92.2434	-0.000505402	76.5759
0.0434359	91.7146	-0.000492258	76.1129
0.0436397	91.1853	-0.000479113	75.6512
0.043844	90.6545	-0.000465955	75.1908
0.044049	90.1243	-0.000452791	74.7317
0.0442545	89.5966	-0.00043963	74.274
0.0444606	89.0722	-0.000426477	73.8177
0.0446673	88.5517	-0.000413342	73.3627
0.0448746	88.035	-0.000400229	72.909
0.0450825	87.5219	-0.000387147	72.4567
0.0452911	87.0119	-0.000374099	72.0058
0.0455002	86.5044	-0.000361092	71.5561
0.0457099	85.9988	-0.000348129	71.1079
0.0459202	85.4943	-0.000335216	70.6609
0.0461311	84.9905	-0.000322356	70.2154
0.0463427	84.4869	-0.000309552	69.7712
0.0465548	83.9834	-0.00029681	69.3284
0.0467676	83.4796	-0.000284135	68.887
0.046981	82.9747	-0.000271538	68.4471
0.047195	82.4675	-0.000258999	68.0086
0.0474097	81.9602	-0.000246519	67.5716
0.0476249	81.4556	-0.000234111	67.1361
0.0478408	80.9546	-0.000221784	66.702
0.0480573	80.4577	-0.000209542	66.2695
0.0482745	79.965	-0.000197394	65.8384
0.0484923	79.4763	-0.000185346	65.4088
0.0487107	78.9906	-0.000173403	64.9806
0.0489297	78.5073	-0.00016157	64.5539
0.0491494	78.0251	-0.00014985	64.1287
0.0493698	77.5435	-0.000138244	63.705
0.0495908	77.0618	-0.00012676	63.2828
0.0498124	76.5792	-0.000115411	62.8621
0.0500347	76.0935	-0.000104213	62.4429
0.0502576	75.6008	-9.31848e-05	62.0253
0.0504812	75.0956	-8.23484e-05	61.6094
0.0507055	74.5699	-7.17225e-05	61.1952
0.0509304	74.014	-6.13262e-05	60.783
0.0511559	73.4168	-5.11496e-05	60.3729
0.0513822	72.7668	-4.11973e-05	59.9652
0.0516091	72.0555	-3.10996e-05	59.5603
0.0518367	71.3191	-2.07029e-05	59.1585
0.0520649	70.6131	-1.04074e-05	58.7597
0.0522938	69.9389	-2.69864e-07	58.3639
0.0525234	69.2941	9.69832e-06	57.9708
0.0527537	68.6759	1.94894e-05	57.5804
0.0529847	68.0808	2.90986e-05	57.1925
0.0532163	67.5057	3.85237e-05	56.8071
0.0534487	66.9473	4.77641e-05	56.4241
0.0536817	66.4032	5.68203e-05	56.0433
0.0539154	65.8712	6.56929e-05	55.6648
0.0541499	65.3497	7.43819e-05	55.2884
0.054385	64.8373	8.28867e-05	54.9142
0.0546208	64.3332	9.12053e-05	54.5421
0.0548573	63.8365	9.93352e-05	54.1722
0.0550946	63.3464	0.000107273	53.8042
0.0553325	62.8621	0.000115015	53.4384
0.0555712	62.3826	0.000122557	53.0745
0.0558105	61.9072	0.000129897	52.7127
0.0560506	61.4347	0.000137031	52.3529
0.0562914	60.9645	0.00014396	51.9951
0.056533	60.4958	0.000150681	51.6394
0.0567752	60.0282	0.000157196	51.2856
0.0570182	59.5617	0.000163506	50.9339
0.057262	59.0965	0.000169611	50.5843
0.0575064	58.6332	0.000175512	50.2367
0.0577516	58.1727	0.000181207	49.8911
0.0579976	57.7159	0.000186692	49.5476
0.0582442	57.2637	0.000191964	49.2061
0.0584917	56.8167	0.000197015	48.8667
0.0587399	56.3754	0.00020184	48.5292
0.0589888	55.9396	0.000206433	48.1937
0.0592385	55.5093	0.000210788	47.8602
0.059489	55.0839	0.000214902	47.5286
0.0597402	54.663	0.000218772	47.199
0.0599922	54.2459	0.000222395	46.8712
0.060245	53.8324	0.00022577	46.5454
0.0604985	53.4218	0.000228895	46.2214
0.0607528	53.0139	0.000231769	45.8993
0.0610079	52.6084	0.000234392	45.5792
0.0612638	52.2053	0.00023676	45.2608
0.0615205	51.8043	0.000238874	44.9444
0.061778	51.4055	0.000240733	44.6298
0.0620362	51.0091	0.000242335	44.3172
0.0622953	50.6151	0.000243679	44.0063
0.0625552	50.2239	0.000244761	43.6974
0.0628158	49.8355	0.000245583	43.3903
0.0630773	49.4501	0.000246131	43.085
0.0633396	49.0678	0.000246437	42.7816
0.0636028	48.6886	0.000246428	42.48
0.0638667	48.3123	0.000246161	42.1802
0.0641315	47.9387	0.000245616	41.8822
0.0643971	47.5676	0.000244791	41.586
0.0646635	47.199	0.000243686	41.2917
0.0649308	46.8329	0.000242302	40.9991
0.0651989	46.4693	0.000240637	40.7083
0.0654679	46.1083	0.000238691	40.4193
0.0657377	45.7502	0.000236462	40.132
0.0660084	45.395	0.000233949	39.8465
0.06628	45.043	0.00023115	39.5628
0.0665524	44.6941	0.000228062	39.2808
0.0668257	44.3483	0.000224684	39.0005
0.0670998	44.0055	0.000221015	38.7219
0.0673748	43.6656	0.000217053	38.4451
0.0676508	43.3284	0.000212798	38.1699
0.0679276	42.9937	0.000208251	37.8964
0.0682053	42.6612	0.000203411	37.6246
0.0684839	42.3309	0.000198282	37.3545
0.0687634	42.0026	0.000192864	37.086
0.0690438	41.6765	0.000187161	36.8192
0.0693252	41.3525	0.000181175	36.554
0.0696074	41.0309	0.000174906	36.2905
0.0698906	40.7119	0.000168356	36.0286
0.0701747	40.3956	0.000161523	35.7683
0.0704597	40.0821	0.000154407	35.5097
0.0707457	39.7715	0.000147008	35.2526
0.0710327	39.4636	0.000139324	34.9971
0.0713206	39.1584	0.000131359	34.7432
0.0716094	38.8556	0.000123112	34.4909
0.0718992	38.5551	0.000114585	34.2402
0.07219	38.2571	0.000105782	33.9909
0.0724818	37.9613	9.67022e-05	33.7432
0.0727745	37.6678	8.7347e-05	33.4971
0.0730683	37.3765	7.77166e-05	33.2525
0.073363	37.0875	6.78108e-05	33.0093
0.0736587	36.8005	5.76299e-05	32.7677
0.0739555	36.5155	4.71749e-05	32.5276
0.0742532	36.2323	3.64476e-05	32.2889
0.074552	35.9508	2.54506e-05	32.0518
0.0748518	35.671	1.41869e-05	31.8161
0.0751527	35.3932	2.65901e-06	31.5819
0.0754546	35.1175	-9.13173e-06	31.3491
0.0757575	34.8442	-2.11854e-05	31.1178
0.0760615	34.5736	-3.35038e-05	30.8879
0.0763666	34.3057	-4.60895e-05	30.6594
0.0766727	34.0407	-5.89458e-05	30.4324
0.0769799	33.7784	-7.20755e-05	30.2067
0.0772882	33.5184	-8.54804e-05	29.9825
0.0775976	33.2606	-9.91606e-05	29.7596
0.0779081	33.0045	-0.000113115	29.5381
0.0782198	32.7499	-0.00012734	29.3179
0.0785325	32.4966	-0.000141833	29.0991
0.0788464	32.2444	-0.00015659	28.8816
0.0791614	31.9935	-0.000171605	28.6655
0.0794775	31.744	-0.000186875	28.4507
0.0797948	31.496	-0.000202397	28.2372
0.0801133	31.2499	-0.000218167	28.0251
0.0804329	31.0059	-0.000234182	27.8142
0.0807538	30.764	-0.000250439	27.6047
0.0810758	30.5245	-0.000266933	27.3965
0.081399	30.2873	-0.00028366	27.1896
0.0817234	30.0524	-0.000300612	26.9839
0.0820491	29.8197	-0.000317783	26.7795
0.082376	29.589	-0.000335163	26.5763
0.0827041	29.36	-0.000352741	26.3744
0.0830335	29.1326	-0.000370503	26.1737
0.0833641	28.9067	-0.000388435	25.9742
0.083696	28.6821	-0.000406518	25.7759
0.0840292	28.4588	-0.000424737	25.5789
0.0843637	28.2369	-0.000443074	25.383
0.0846995	28.0166	-0.000461513	25.1884
0.0850366	27.7979	-0.000480039	24.9949
0.085375	27.5809	-0.000498635	24.8026
0.0857148	27.3657	-0.000517285	24.6115
0.0860559	27.1523	-0.000535973	24.4215
0.0863984	26.9406	-0.000554679	24.2327
0.0867422	26.7306	-0.000573389	24.045
0.0870875	26.5223	-0.000592083	23.8585
0.0874342	26.3156	-0.00061074	23.6731
0.0877822	26.1106	-0.000629342	23.4888
0.0881317	25.9071	-0.000647872	23.3056
0.0884827	25.7052	-0.000666309	23.1235
0.0888351	25.5048	-0.000684634	22.9425
0.0891889	25.306	-0.000702828	22.7625
0.0895443	25.1088	-0.000720871	22.5837
0.0899011	24.9133	-0.000738748	22.4059
0.0902595	24.7193	-0.000756443	22.2291
0.0906194	24.5268	-0.000773941	22.0534
0.0909808	24.3356	-0.000791227	21.8788
0.0913438	24.1455	-0.000808281	21.7052
0.0917083	23.9564	-0.000825085	21.5326
0.0920745	23.768	-0.000841616	21.361
0.0924422	23.5805	-0.000857852	21.1904
0.0928116	23.3939	-0.00087377	21.0209
0.0931826	23.2084	-0.000889354	20.8523
0.0935553	23.0243	-0.000904584	20.6848
0.0939296	22.8418	-0.000919447	20.5183
0.0943057	22.661	-0.000933925	20.3527
0.0946834	22.482	-0.000948004	20.1881
0.0950629	22.3046	-0.000961665	20.0245
0.0954441	22.1288	-0.00097489	19.8618
0.095827	21.9545	-0.000987661	19.7001
0.0962118	21.7815	-0.00099996	19.5393
0.0965984	21.6097	-0.00101177	19.3794
0.0969867	21.4392	-0.00102308	19.2205
0.097377	21.2699	-0.00103386	19.0624
0.097769	21.1018	-0.00104411	18.9053
0.098163	20.9349	-0.0010538	18.749
0.0985589	20.7692	-0.00106292	18.5936
0.0989567	20.6046	-0.00107145	18.4392
0.0993564	20.4411	-0.00107936	18.2855
0.0997581	20.2785	-0.00108664	18.1328
0.100162	20.1167	-0.00109327	17.9809
0.100568	19.9556	-0.00109923	17.8299
0.100975	19.7951	-0.00110451	17.6797
0.101385	19.6355	-0.00110907	17.5303
0.101797	19.4767	-0.00111292	17.3819
0.102211	19.3189	-0.00111603	17.2342
0.102627	19.1624	-0.00111841	17.0874
0.103046	19.0072	-0.00112001	16.9414
0.103466	18.8535	-0.00112098	16.7962
0.103889	18.7013	-0.00112103	16.6518
0.104314	18.5505	-0.00112037	16.5082
0.104741	18.401	-0.00111895	16.3654
0.105171	18.2526	-0.00111676	16.2233
0.105603	18.1053	-0.00111379	16.082
0.106037	17.9589	-0.00111002	15.9415
0.106473	17.8133	-0.00110544	15.8017
0.106913	17.6684	-0.00110006	15.6627
0.107354	17.5244	-0.00109386	15.5244
0.107798	17.3811	-0.00108685	15.3868
0.108244	17.2387	-0.00107903	15.25
0.108694	17.0972	-0.00107039	15.1139
