# 3D Evrard collapse
# Equivalent 1D problem with 1000 cell co-moving grid
# t = 0.83
# radius	density	radial velocity	pressure
5.56544e-05	5481.25	-7.04553e-05	290.585
0.000166977	5449.21	4.52971e-05	288.794
0.000278295	5284.4	-8.16247e-05	285.881
0.000389633	4838.4	-3.59042e-06	281.731
0.000500979	3939.07	-6.52917e-05	277.301
0.000612346	2815.93	-3.89158e-05	273.468
0.000723732	2123.57	1.33197e-05	270.593
0.000835128	1750.47	4.23428e-05	268.374
0.000946533	1528.16	5.46304e-05	266.539
0.00105794	1381.77	5.84191e-05	264.94
0.00116936	1277.93	5.75284e-05	263.497
0.0012808	1198.72	5.44861e-05	262.162
0.00139224	1133.83	5.04508e-05	260.905
0.0015037	1077.66	4.619e-05	259.708
0.00161518	1027.42	4.21432e-05	258.561
0.00172668	981.79	3.85404e-05	257.457
0.00183821	940.272	3.54726e-05	256.39
0.00194977	902.797	3.29295e-05	255.356
0.00206135	869.415	3.08154e-05	254.351
0.00217297	839.99	2.90008e-05	253.37
0.00228462	814.104	2.73748e-05	252.41
0.00239631	791.142	2.58658e-05	251.467
0.00250804	770.426	2.44403e-05	250.539
0.00261981	751.318	2.31006e-05	249.623
0.00273162	733.314	2.18791e-05	248.719
0.00284348	716.124	2.08172e-05	247.824
0.00295539	699.668	1.99376e-05	246.94
0.00306735	683.981	1.92381e-05	246.065
0.00317936	669.103	1.87e-05	245.198
0.00329143	655.032	1.83011e-05	244.34
0.00340356	641.72	1.80263e-05	243.49
0.00351574	629.105	1.78668e-05	242.648
0.00362799	617.153	1.78258e-05	241.812
0.0037403	605.868	1.78913e-05	240.982
0.00385267	595.261	1.80397e-05	240.159
0.00396512	585.294	1.82428e-05	239.34
0.00407763	575.848	1.84814e-05	238.527
0.00419022	566.761	1.87588e-05	237.718
0.00430287	557.908	1.90945e-05	236.913
0.00441561	549.255	1.95073e-05	236.113
0.00452842	540.842	2.00022e-05	235.317
0.00464131	532.728	2.05689e-05	234.526
0.00475428	524.936	2.11902e-05	233.739
0.00486734	517.434	2.18533e-05	232.955
0.00498048	510.154	2.25589e-05	232.176
0.00509371	503.042	2.33191e-05	231.4
0.00520703	496.101	2.41462e-05	230.628
0.00532044	489.386	2.50397e-05	229.86
0.00543394	482.955	2.59855e-05	229.096
0.00554754	476.824	2.6966e-05	228.335
0.00566124	470.958	2.79722e-05	227.577
0.00577503	465.306	2.90044e-05	226.821
0.00588893	459.833	3.00664e-05	226.069
0.00600293	454.526	3.11581e-05	225.32
0.00611703	449.379	3.2276e-05	224.572
0.00623124	444.375	3.34159e-05	223.828
0.00634555	439.486	3.45771e-05	223.086
0.00645998	434.684	3.57633e-05	222.346
0.00657452	429.953	3.69794e-05	221.609
0.00668918	425.294	3.82283e-05	220.874
0.00680395	420.715	3.95094e-05	220.142
0.00691883	416.221	4.08194e-05	219.412
0.00703384	411.804	4.21568e-05	218.685
0.00714897	407.451	4.3524e-05	217.96
0.00726422	403.157	4.49271e-05	217.237
0.0073796	398.94	4.63717e-05	216.518
0.0074951	394.837	4.78578e-05	215.801
0.00761074	390.887	4.93774e-05	215.086
0.0077265	387.11	5.09171e-05	214.373
0.0078424	383.489	5.24654e-05	213.663
0.00795843	379.975	5.40185e-05	212.954
0.00807459	376.519	5.55823e-05	212.247
0.0081909	373.092	5.71675e-05	211.542
0.00830735	369.7	5.87818e-05	210.839
0.00842393	366.373	6.04251e-05	210.138
0.00854066	363.138	6.20903e-05	209.439
0.00865754	359.999	6.37684e-05	208.742
0.00877457	356.935	6.54542e-05	208.046
0.00889174	353.912	6.71486e-05	207.352
0.00900907	350.899	6.88544e-05	206.659
0.00912654	347.872	7.05865e-05	205.968
0.00924418	344.852	7.23566e-05	205.28
0.00936197	341.891	7.41585e-05	204.592
0.00947991	339.02	7.59841e-05	203.907
0.00959802	336.245	7.78262e-05	203.224
0.00971629	333.557	7.96798e-05	202.542
0.00983473	330.934	8.15425e-05	201.861
0.00995333	328.353	8.34142e-05	201.182
0.0100721	325.791	8.52972e-05	200.505
0.010191	323.233	8.71941e-05	199.828
0.0103101	320.667	8.91151e-05	199.154
0.0104294	318.112	9.10641e-05	198.481
0.0105489	315.591	9.30384e-05	197.81
0.0106685	313.119	9.50345e-05	197.14
0.0107883	310.702	9.70502e-05	196.472
0.0109083	308.341	9.90848e-05	195.805
0.0110285	306.038	0.000101137	195.14
0.0111489	303.792	0.000103205	194.477
0.0112694	301.601	0.000105285	193.814
0.0113902	299.453	0.000107374	193.153
0.0115111	297.332	0.000109472	192.493
0.0116322	295.223	0.000111582	191.834
0.0117535	293.115	0.000113702	191.177
0.011875	290.992	0.000115839	190.521
0.0119967	288.854	0.000118011	189.866
0.0121186	286.746	0.000120211	189.213
0.0122408	284.691	0.000122432	188.561
0.0123631	282.695	0.000124668	187.911
0.0124856	280.753	0.000126918	187.262
0.0126083	278.855	0.000129178	186.614
0.0127312	276.99	0.000131451	185.967
0.0128544	275.15	0.000133735	185.321
0.0129777	273.329	0.000136033	184.676
0.0131013	271.521	0.000138344	184.033
0.0132251	269.724	0.000140669	183.39
0.0133491	267.932	0.000143008	182.749
0.0134733	266.141	0.000145362	182.109
0.0135978	264.35	0.000147735	181.47
0.0137224	262.563	0.000150129	180.832
0.0138473	260.786	0.000152545	180.196
0.0139725	259.029	0.000154983	179.561
0.0140978	257.299	0.000157442	178.927
0.0142234	255.605	0.000159921	178.294
0.0143492	253.95	0.000162416	177.663
0.0144753	252.334	0.000164927	177.032
0.0146016	250.754	0.00016745	176.403
0.0147281	249.203	0.000169985	175.775
0.0148549	247.673	0.000172529	175.147
0.0149819	246.154	0.000175084	174.521
0.0151091	244.639	0.000177653	173.896
0.0152366	243.122	0.000180235	173.271
0.0153644	241.602	0.000182839	172.648
0.0154924	240.088	0.000185465	172.026
0.0156206	238.593	0.000188111	171.404
0.0157492	237.122	0.000190775	170.784
0.0158779	235.674	0.000193453	170.165
0.0160069	234.249	0.000196145	169.547
0.0161362	232.84	0.000198851	168.929
0.0162658	231.443	0.00020157	168.313
0.0163956	230.055	0.000204305	167.698
0.0165257	228.673	0.000207058	167.083
0.016656	227.299	0.000209828	166.47
0.0167866	225.937	0.000212616	165.857
0.0169175	224.588	0.000215421	165.246
0.0170486	223.253	0.000218243	164.635
0.0171801	221.93	0.000221081	164.026
0.0173118	220.619	0.000223935	163.417
0.0174438	219.319	0.000226807	162.81
0.017576	218.031	0.000229697	162.203
0.0177086	216.757	0.000232603	161.597
0.0178414	215.497	0.000235526	160.992
0.0179746	214.248	0.000238464	160.388
0.018108	213.01	0.000241417	159.785
0.0182417	211.779	0.000244388	159.183
0.0183757	210.557	0.000247377	158.582
0.01851	209.344	0.000250385	157.981
0.0186445	208.145	0.000253413	157.382
0.0187794	206.961	0.000256457	156.783
0.0189146	205.794	0.000259517	156.185
0.0190501	204.64	0.000262591	155.589
0.0191859	203.494	0.000265678	154.992
0.019322	202.353	0.00026878	154.397
0.0194584	201.213	0.000271896	153.803
0.0195951	200.07	0.000275033	153.209
0.0197321	198.928	0.000278193	152.617
0.0198695	197.795	0.000281376	152.025
0.0200071	196.676	0.000284579	151.434
0.0201451	195.572	0.000287799	150.844
0.0202834	194.483	0.000291035	150.255
0.020422	193.407	0.000294287	149.667
0.020561	192.339	0.000297555	149.079
0.0207002	191.279	0.00030084	148.493
0.0208398	190.225	0.000304143	147.907
0.0209798	189.177	0.000307466	147.322
0.02112	188.138	0.000310807	146.738
0.0212606	187.107	0.000314167	146.155
0.0214015	186.084	0.000317544	145.572
0.0215428	185.069	0.000320936	144.99
0.0216844	184.058	0.000324345	144.41
0.0218263	183.049	0.00032777	143.829
0.0219686	182.039	0.000331213	143.25
0.0221112	181.028	0.00033468	142.672
0.0222542	180.02	0.000338171	142.094
0.0223975	179.02	0.000341687	141.518
0.0225412	178.034	0.000345225	140.942
0.0226852	177.063	0.000348783	140.367
0.0228296	176.107	0.000352358	139.793
0.0229743	175.165	0.000355949	139.22
0.0231194	174.231	0.000359555	138.648
0.0232649	173.304	0.000363175	138.076
0.0234107	172.379	0.000366814	137.505
0.0235569	171.454	0.000370472	136.935
0.0237035	170.531	0.000374153	136.366
0.0238504	169.612	0.000377857	135.797
0.0239977	168.699	0.000381584	135.23
0.0241453	167.796	0.000385333	134.663
0.0242934	166.903	0.0003891	134.097
0.0244418	166.02	0.000392885	133.532
0.0245906	165.143	0.000396687	132.967
0.0247397	164.271	0.000400505	132.404
0.0248893	163.4	0.000404342	131.841
0.0250392	162.529	0.000408196	131.279
0.0251895	161.655	0.000412063	130.717
0.0253402	160.774	0.000415966	130.157
0.0254913	159.895	0.000419902	129.597
0.0256428	159.028	0.000423865	129.039
0.0257947	158.177	0.000427852	128.481
0.025947	157.341	0.000431857	127.924
0.0260997	156.519	0.000435879	127.368
0.0262528	155.708	0.000439917	126.813
0.0264062	154.904	0.000443971	126.258
0.0265601	154.103	0.000448043	125.704
0.0267144	153.303	0.000452133	125.151
0.0268691	152.502	0.000456238	124.599
0.0270242	151.696	0.000460354	124.047
0.0271797	150.879	0.000464489	123.496
0.0273356	150.047	0.000468681	122.947
0.027492	149.224	0.00047291	122.398
0.0276487	148.416	0.000477164	121.85
0.0278059	147.625	0.000481439	121.303
0.0279635	146.849	0.000485732	120.757
0.0281215	146.084	0.000490043	120.211
0.02828	145.328	0.000494373	119.667
0.0284388	144.577	0.00049872	119.123
0.0285981	143.829	0.000503088	118.58
0.0287579	143.083	0.000507477	118.038
0.028918	142.337	0.000511889	117.497
0.0290786	141.591	0.000516321	116.956
0.0292397	140.843	0.000520776	116.416
0.0294011	140.093	0.000525264	115.878
0.029563	139.345	0.000529781	115.34
0.0297254	138.602	0.000534325	114.803
0.0298882	137.865	0.000538896	114.266
0.0300514	137.135	0.000543493	113.731
0.0302151	136.411	0.000548113	113.197
0.0303793	135.693	0.000552758	112.663
0.0305438	134.981	0.000557425	112.13
0.0307089	134.272	0.000562117	111.599
0.0308744	133.568	0.000566833	111.068
0.0310403	132.866	0.000571574	110.538
0.0312067	132.166	0.000576341	110.008
0.0313736	131.47	0.000581134	109.48
0.031541	130.776	0.000585953	108.953
0.0317088	130.084	0.000590799	108.426
0.031877	129.395	0.000595672	107.901
0.0320458	128.709	0.000600572	107.376
0.032215	128.026	0.000605502	106.852
0.0323846	127.347	0.00061046	106.329
0.0325548	126.672	0.000615448	105.807
0.0327254	126.002	0.000620466	105.286
0.0328965	125.339	0.000625511	104.766
0.0330681	124.681	0.000630584	104.247
0.0332402	124.029	0.000635682	103.728
0.0334127	123.382	0.000640804	103.211
0.0335858	122.738	0.000645951	102.695
0.0337593	122.097	0.000651123	102.179
0.0339333	121.456	0.000656321	101.664
0.0341078	120.815	0.000661544	101.15
0.0342828	120.172	0.000666793	100.637
0.0344583	119.527	0.000672083	100.125
0.0346343	118.885	0.00067741	99.6145
0.0348108	118.247	0.00068277	99.1046
0.0349877	117.614	0.000688159	98.5956
0.0351652	116.986	0.000693578	98.0876
0.0353432	116.363	0.000699025	97.5806
0.0355217	115.744	0.000704502	97.0746
0.0357007	115.13	0.00071001	96.5695
0.0358802	114.519	0.000715548	96.0654
0.0360602	113.912	0.000721116	95.5622
0.0362408	113.309	0.000726714	95.0601
0.0364218	112.709	0.00073234	94.5588
0.0366034	112.112	0.000737994	94.0586
0.0367855	111.515	0.000743677	93.5594
0.0369681	110.92	0.000749389	93.0611
0.0371512	110.324	0.000755129	92.5638
0.0373349	109.727	0.000760896	92.0676
0.037519	109.127	0.000766709	91.5724
0.0377037	108.528	0.000772566	91.0783
0.037889	107.934	0.000778462	90.5853
0.0380747	107.345	0.000784391	90.0934
0.038261	106.762	0.000790353	89.6025
0.0384479	106.184	0.000796346	89.1127
0.0386352	105.61	0.000802371	88.6239
0.0388231	105.041	0.000808428	88.1362
0.0390116	104.475	0.000814518	87.6496
0.0392006	103.912	0.000820641	87.164
0.0393901	103.352	0.000826797	86.6794
0.0395802	102.795	0.000832985	86.1959
0.0397708	102.239	0.000839205	85.7135
0.039962	101.684	0.000845457	85.2321
0.0401537	101.13	0.000851743	84.7518
0.040346	100.576	0.000858063	84.2726
0.0405388	100.022	0.000864422	83.7946
0.0407322	99.468	0.000870823	83.3176
0.0409262	98.9158	0.000877264	82.8418
0.0411207	98.3663	0.000883746	82.3672
0.0413157	97.8202	0.000890267	81.8937
0.0415114	97.278	0.000896826	81.4214
0.0417076	96.7396	0.00090342	80.9502
0.0419043	96.2045	0.000910049	80.4801
0.0421017	95.6722	0.000916713	80.0113
0.0422996	95.1418	0.000923411	79.5435
0.042498	94.6127	0.000930144	79.077
0.0426971	94.0841	0.000936913	78.6116
0.0428967	93.5556	0.000943719	78.1474
0.0430969	93.0269	0.000950559	77.6844
0.0432977	92.4968	0.000957437	77.2226
0.0434991	91.9649	0.000964371	76.7621
0.043701	91.4346	0.000971353	76.3028
0.0439035	90.9075	0.000978381	75.8449
0.0441066	90.3843	0.000985451	75.3882
0.0443103	89.8651	0.000992561	74.9328
0.0445146	89.3499	0.000999711	74.4786
0.0447195	88.8381	0.0010069	74.0257
0.044925	88.329	0.00101412	73.5741
0.0451311	87.8219	0.00102139	73.1238
0.0453377	87.3163	0.00102869	72.6747
0.045545	86.8115	0.00103603	72.2269
0.0457529	86.307	0.00104341	71.7804
0.0459613	85.8026	0.00105083	71.3353
0.0461704	85.2981	0.0010583	70.8915
0.0463801	84.7928	0.0010658	70.449
0.0465904	84.2856	0.00107334	70.0079
0.0468013	83.7761	0.00108095	69.5682
0.0470128	83.2679	0.00108861	69.13
0.0472249	82.7628	0.00109632	68.6932
0.0474376	82.2616	0.00110409	68.2578
0.0476509	81.7647	0.00111189	67.8238
0.0478649	81.2721	0.00111975	67.3913
0.0480795	80.7834	0.00112764	66.9601
0.0482947	80.2976	0.00113557	66.5304
0.0485105	79.814	0.00114354	66.1021
0.048727	79.3314	0.00115156	65.6753
0.0489441	78.8491	0.00115961	65.2498
0.0491618	78.3665	0.0011677	64.8259
0.0493801	77.8822	0.00117581	64.4034
0.0495991	77.3931	0.00118394	63.9824
0.0498187	76.8943	0.00119205	63.5629
0.0500389	76.3786	0.00120014	63.1452
0.0502598	75.8361	0.00120819	62.7292
0.0504813	75.2554	0.00121618	62.3152
0.0507034	74.6241	0.00122414	61.9035
0.0509262	73.9314	0.00123221	61.4944
0.0511497	73.1829	0.00124086	61.0882
0.0513737	72.4511	0.00124974	60.6851
0.0515985	71.753	0.00125867	60.285
0.0518239	71.0868	0.00126765	59.8878
0.0520499	70.4496	0.00127665	59.4932
0.0522766	69.8382	0.00128569	59.1013
0.0525039	69.249	0.00129475	58.7118
0.0527319	68.6785	0.00130385	58.3246
0.0529606	68.1238	0.00131298	57.9398
0.0531899	67.5823	0.00132214	57.5572
0.0534199	67.0518	0.00133134	57.1769
0.0536505	66.531	0.00134058	56.7986
0.0538818	66.0188	0.00134987	56.4225
0.0541138	65.5142	0.00135921	56.0485
0.0543464	65.0167	0.00136859	55.6766
0.0545797	64.5254	0.00137801	55.3067
0.0548137	64.0397	0.00138747	54.9388
0.0550484	63.5587	0.00139698	54.573
0.0552837	63.0814	0.00140653	54.2092
0.0555198	62.6071	0.00141613	53.8473
0.0557564	62.1349	0.00142576	53.4875
0.0559938	61.6642	0.00143545	53.1297
0.0562319	61.1945	0.00144518	52.774
0.0564706	60.7259	0.00145497	52.4203
0.0567101	60.2584	0.00146482	52.0686
0.0569502	59.7929	0.00147473	51.7189
0.057191	59.33	0.0014847	51.3713
0.0574325	58.8709	0.00149474	51.0258
0.0576747	58.4165	0.00150483	50.6823
0.0579176	57.9674	0.00151499	50.3408
0.0581612	57.5242	0.00152519	50.0014
0.0584055	57.0869	0.00153545	49.6639
0.0586506	56.6551	0.00154576	49.3283
0.0588963	56.2284	0.00155611	48.9948
0.0591427	55.8062	0.00156651	48.6631
0.0593898	55.3878	0.00157695	48.3334
0.0596377	54.9728	0.00158745	48.0055
0.0598862	54.5607	0.00159799	47.6796
0.0601355	54.1512	0.00160859	47.3556
0.0603855	53.7442	0.00161923	47.0335
0.0606362	53.3395	0.00162993	46.7132
0.0608876	52.937	0.00164069	46.3949
0.0611398	52.5368	0.0016515	46.0784
0.0613926	52.1388	0.00166236	45.7638
0.0616462	51.7433	0.00167329	45.4511
0.0619006	51.3504	0.00168427	45.1403
0.0621557	50.9603	0.00169532	44.8314
0.0624115	50.5733	0.00170641	44.5243
0.062668	50.1895	0.00171757	44.2191
0.0629253	49.8088	0.00172878	43.9157
0.0631833	49.4312	0.00174005	43.6142
0.0634421	49.0564	0.00175137	43.3145
0.0637016	48.6844	0.00176274	43.0166
0.0639619	48.3148	0.00177417	42.7205
0.0642229	47.9477	0.00178566	42.4263
0.0644846	47.583	0.00179721	42.1339
0.0647472	47.2209	0.00180882	41.8432
0.0650104	46.8615	0.0018205	41.5544
0.0652745	46.5052	0.00183223	41.2674
0.0655393	46.1519	0.00184403	40.9821
0.0658049	45.8019	0.00185588	40.6986
0.0660712	45.4551	0.0018678	40.4168
0.0663383	45.1114	0.00187977	40.1368
0.0666062	44.7706	0.0018918	39.8585
0.0668749	44.4327	0.00190389	39.582
0.0671443	44.0973	0.00191603	39.3071
0.0674145	43.7644	0.00192824	39.034
0.0676855	43.4337	0.0019405	38.7626
0.0679573	43.1052	0.00195283	38.4928
0.0682299	42.7787	0.00196522	38.2248
0.0685033	42.4544	0.00197767	37.9584
0.0687775	42.1322	0.00199019	37.6937
0.0690524	41.8126	0.00200278	37.4307
0.0693282	41.4956	0.00201544	37.1694
0.0696048	41.1814	0.00202816	36.9096
0.0698822	40.8702	0.00204094	36.6516
0.0701604	40.5619	0.00205379	36.3951
0.0704394	40.2564	0.00206671	36.1403
0.0707192	39.9535	0.00207968	35.8871
0.0709998	39.6531	0.00209272	35.6354
0.0712813	39.3551	0.00210582	35.3854
0.0715636	39.0593	0.00211899	35.1369
0.0718467	38.7657	0.00213223	34.89
0.0721307	38.4744	0.00214554	34.6447
0.0724154	38.1854	0.00215891	34.4009
0.0727011	37.8987	0.00217235	34.1586
0.0729875	37.6141	0.00218586	33.9179
0.0732748	37.3316	0.00219943	33.6787
0.073563	37.0509	0.00221307	33.4411
0.073852	36.772	0.00222678	33.2049
0.0741419	36.4949	0.00224056	32.9702
0.0744326	36.2197	0.00225442	32.7371
0.0747242	35.9465	0.00226835	32.5054
0.0750167	35.6758	0.00228236	32.2753
0.07531	35.4076	0.00229645	32.0466
0.0756043	35.1423	0.00231062	31.8193
0.0758994	34.8798	0.00232485	31.5935
0.0761953	34.6201	0.00233915	31.3691
0.0764922	34.363	0.00235352	31.1462
0.07679	34.1082	0.00236796	30.9246
0.0770886	33.8552	0.00238246	30.7045
0.0773882	33.6037	0.00239703	30.4857
0.0776886	33.3536	0.00241167	30.2684
0.07799	33.1046	0.00242639	30.0524
0.0782923	32.8569	0.00244119	29.8377
0.0785954	32.6104	0.00245607	29.6245
0.0788996	32.3655	0.00247103	29.4126
0.0792046	32.1223	0.00248608	29.2021
0.0795106	31.8811	0.00250121	28.993
0.0798175	31.6422	0.00251643	28.7852
0.0801253	31.4055	0.00253172	28.5787
0.0804341	31.1712	0.0025471	28.3735
0.0807439	30.9393	0.00256255	28.1696
0.0810546	30.7096	0.00257808	27.9671
0.0813663	30.482	0.00259369	27.7658
0.0816789	30.2565	0.00260938	27.5658
0.0819925	30.0327	0.00262515	27.3671
0.0823071	29.8105	0.00264099	27.1696
0.0826226	29.5897	0.00265691	26.9734
0.0829392	29.3703	0.00267292	26.7784
0.0832567	29.1521	0.00268902	26.5846
0.0835752	28.9353	0.0027052	26.3921
0.0838948	28.72	0.00272148	26.2008
0.0842153	28.5064	0.00273785	26.0107
0.0845369	28.2946	0.00275431	25.8219
0.0848595	28.0846	0.00277086	25.6342
0.0851831	27.8765	0.00278749	25.4477
0.0855077	27.6701	0.00280422	25.2624
0.0858334	27.4654	0.00282103	25.0783
0.0861602	27.2624	0.00283794	24.8953
0.086488	27.0611	0.00285493	24.7135
0.0868168	26.8614	0.00287203	24.5328
0.0871467	26.6633	0.00288921	24.3533
0.0874777	26.4668	0.00290649	24.1748
0.0878098	26.2719	0.00292386	23.9976
0.088143	26.0785	0.00294133	23.8214
0.0884772	25.8866	0.0029589	23.6463
0.0888126	25.6963	0.00297657	23.4723
0.089149	25.5075	0.00299433	23.2994
0.0894866	25.3202	0.0030122	23.1275
0.0898253	25.1345	0.00303016	22.9568
0.0901652	24.9502	0.00304822	22.7871
0.0905061	24.7671	0.00306638	22.6184
0.0908483	24.585	0.00308463	22.4508
0.0911915	24.4037	0.00310298	22.2843
0.091536	24.2233	0.00312145	22.1187
0.0918816	24.0437	0.00314002	21.9542
0.0922284	23.8651	0.00315872	21.7908
0.0925764	23.6877	0.00317753	21.6283
0.0929256	23.5119	0.00319646	21.4669
0.093276	23.3378	0.00321551	21.3065
0.0936276	23.1655	0.00323466	21.147
0.0939804	22.995	0.00325393	20.9886
0.0943345	22.8262	0.00327331	20.8311
0.0946898	22.6589	0.0032928	20.6746
0.0950464	22.493	0.0033124	20.519
0.0954042	22.3283	0.00333212	20.3644
0.0957633	22.1649	0.00335195	20.2108
0.0961237	22.0026	0.00337191	20.058
0.0964854	21.8414	0.00339199	19.9062
0.0968484	21.6814	0.00341219	19.7553
0.0972127	21.5226	0.00343252	19.6054
0.0975783	21.365	0.00345298	19.4563
0.0979453	21.2085	0.00347355	19.3081
0.0983136	21.0531	0.00349426	19.1608
0.0986833	20.8987	0.00351509	19.0144
0.0990543	20.7452	0.00353605	18.8689
0.0994268	20.5926	0.00355715	18.7242
0.0998006	20.4407	0.00357837	18.5805
0.100176	20.2895	0.00359974	18.4375
0.100552	20.1391	0.00362124	18.2955
0.100931	19.9896	0.0036429	18.1543
0.10131	19.841	0.0036647	18.0139
0.101691	19.6937	0.00368666	17.8744
0.102074	19.5477	0.00370877	17.7357
0.102458	19.4032	0.00373103	17.5979
0.102843	19.2602	0.00375344	17.4609
0.10323	19.1186	0.00377599	17.3246
0.103618	18.9783	0.00379869	17.1892
0.104008	18.8392	0.00382153	17.0546
0.1044	18.7011	0.00384453	16.9207
0.104793	18.564	0.00386768	16.7876
0.105188	18.4277	0.00389099	16.6553
0.105584	18.2922	0.00391445	16.5238
0.105982	18.1575	0.00393809	16.393
0.106382	18.0235	0.00396189	16.263
0.106783	17.8903	0.00398586	16.1337
0.107186	17.7579	0.00401001	16.0051
