# 3D Evrard collapse
# Equivalent 1D problem with 1000 cell co-moving grid
# t = 0.78
# radius	density	radial velocity	pressure
5.47996e-05	5469.15	-6.80475e-05	289.324
0.000164412	5433.65	4.48736e-05	287.596
0.00027402	5219.73	-7.3149e-05	284.809
0.000383645	4639.63	1.60512e-05	280.95
0.000493275	3561.78	-6.36953e-05	277.077
0.000602926	2520.44	-1.51695e-05	273.906
0.000712591	1975.25	2.53946e-05	271.549
0.000822264	1675.43	4.32466e-05	269.663
0.000931944	1487.74	4.98412e-05	268.057
0.00104163	1358.99	5.06265e-05	266.628
0.00115133	1264.84	4.86524e-05	265.318
0.00126104	1191.13	4.52689e-05	264.09
0.00137077	1129.49	4.13835e-05	262.923
0.00148051	1075.44	3.7517e-05	261.804
0.00159028	1026.7	3.39957e-05	260.725
0.00170006	982.248	3.09616e-05	259.681
0.00180988	941.7	2.84638e-05	258.667
0.00191972	905.05	2.64698e-05	257.681
0.00202959	872.361	2.48774e-05	256.72
0.0021395	843.497	2.35597e-05	255.779
0.00224944	818.046	2.24113e-05	254.855
0.00235941	795.413	2.13643e-05	253.945
0.00246943	774.945	2.03865e-05	253.048
0.00257949	756.028	1.948e-05	252.161
0.00268959	738.18	1.86739e-05	251.284
0.00279974	721.122	1.8007e-05	250.415
0.00290994	704.777	1.75016e-05	249.555
0.00302019	689.179	1.71572e-05	248.702
0.00313049	674.371	1.69559e-05	247.858
0.00324085	660.355	1.68796e-05	247.02
0.00335126	647.085	1.69154e-05	246.19
0.00346173	634.503	1.70528e-05	245.365
0.00357226	622.572	1.72922e-05	244.547
0.00368285	611.291	1.76272e-05	243.735
0.00379351	600.675	1.80391e-05	242.928
0.00390424	590.697	1.85006e-05	242.125
0.00401503	581.253	1.89916e-05	241.327
0.0041259	572.184	1.95118e-05	240.533
0.00423683	563.357	2.00789e-05	239.742
0.00434784	554.721	2.07127e-05	238.956
0.00445893	546.308	2.14211e-05	238.173
0.00457009	538.178	2.21974e-05	237.394
0.00468134	530.367	2.30259e-05	236.619
0.00479267	522.854	2.38928e-05	235.848
0.00490408	515.576	2.47952e-05	235.08
0.00501557	508.471	2.57431e-05	234.316
0.00512716	501.524	2.675e-05	233.555
0.00523883	494.78	2.78203e-05	232.797
0.00535059	488.304	2.89435e-05	232.043
0.00546245	482.126	3.0102e-05	231.292
0.0055744	476.226	3.1284e-05	230.543
0.00568645	470.55	3.2488e-05	229.798
0.0057986	465.056	3.37178e-05	229.055
0.00591085	459.726	3.49755e-05	228.314
0.0060232	454.555	3.62587e-05	227.576
0.00613565	449.534	3.7563e-05	226.84
0.00624821	444.636	3.88862e-05	226.106
0.00636088	439.833	4.02306e-05	225.375
0.00647366	435.102	4.16009e-05	224.646
0.00658655	430.438	4.30015e-05	223.919
0.00669955	425.849	4.44334e-05	223.194
0.00681266	421.343	4.58942e-05	222.471
0.0069259	416.919	4.73812e-05	221.751
0.00703925	412.564	4.88947e-05	221.033
0.00715273	408.268	5.04391e-05	220.318
0.00726632	404.036	5.20209e-05	219.605
0.00738004	399.895	5.36434e-05	218.894
0.00749389	395.887	5.53033e-05	218.185
0.00760786	392.045	5.69897e-05	217.479
0.00772197	388.371	5.86895e-05	216.775
0.0078362	384.833	6.03945e-05	216.072
0.00795057	381.377	6.21054e-05	215.372
0.00806507	377.957	6.38312e-05	214.673
0.00817971	374.561	6.55823e-05	213.975
0.00829449	371.209	6.73636e-05	213.28
0.00840941	367.933	6.91718e-05	212.586
0.00852447	364.755	7.09983e-05	211.894
0.00863968	361.669	7.28351e-05	211.203
0.00875503	358.644	7.46796e-05	210.514
0.00887053	355.646	7.65349e-05	209.827
0.00898618	352.649	7.84031e-05	209.141
0.00910198	349.63	8.03064e-05	208.456
0.00921794	346.637	8.22471e-05	207.774
0.00933405	343.718	8.42172e-05	207.093
0.00945031	340.895	8.62086e-05	206.414
0.00956674	338.166	8.82153e-05	205.736
0.00968333	335.516	9.02338e-05	205.06
0.00980008	332.923	9.22625e-05	204.385
0.00991699	330.363	9.43022e-05	203.712
0.0100341	327.817	9.63557e-05	203.04
0.0101513	325.271	9.84252e-05	202.369
0.0102687	322.715	0.000100523	201.7
0.0103863	320.176	0.000102651	201.032
0.0105041	317.676	0.000104804	200.366
0.010622	315.23	0.00010698	199.701
0.0107401	312.839	0.000109177	199.038
0.0108584	310.503	0.000111395	198.376
0.0109769	308.222	0.000113632	197.716
0.0110956	305.998	0.000115886	197.056
0.0112144	303.827	0.000118155	196.398
0.0113334	301.696	0.000120435	195.742
0.0114527	299.589	0.000122728	195.086
0.0115721	297.491	0.000125036	194.431
0.0116917	295.392	0.000127355	193.778
0.0118114	293.273	0.000129698	193.126
0.0119314	291.142	0.00013208	192.475
0.0120516	289.047	0.000134491	191.826
0.012172	287.007	0.000136927	191.178
0.0122926	285.026	0.000139381	190.531
0.0124134	283.098	0.000141851	189.886
0.0125344	281.213	0.000144337	189.241
0.0126556	279.36	0.000146838	188.598
0.012777	277.529	0.000149356	187.955
0.0128986	275.715	0.000151892	187.314
0.0130204	273.915	0.000154446	186.673
0.0131425	272.125	0.000157018	186.034
0.0132648	270.339	0.00015961	185.396
0.0133872	268.555	0.000162223	184.759
0.0135099	266.771	0.000164859	184.123
0.0136329	264.989	0.000167521	183.488
0.013756	263.218	0.000170211	182.854
0.0138794	261.466	0.000172928	182.222
0.014003	259.742	0.000175673	181.59
0.0141268	258.053	0.000178443	180.96
0.0142509	256.402	0.000181236	180.331
0.0143752	254.79	0.000184051	179.703
0.0144997	253.214	0.000186885	179.076
0.0146245	251.667	0.000189737	178.45
0.0147495	250.142	0.000192607	177.825
0.0148747	248.628	0.000195495	177.2
0.0150002	247.119	0.000198404	176.577
0.015126	245.609	0.000201332	175.954
0.0152519	244.092	0.00020429	175.333
0.0153782	242.58	0.000207279	174.712
0.0155046	241.085	0.000210296	174.093
0.0156314	239.614	0.000213339	173.474
0.0157584	238.168	0.000216406	172.857
0.0158856	236.744	0.000219496	172.24
0.0160131	235.337	0.000222608	171.624
0.0161409	233.944	0.000225744	171.009
0.0162689	232.558	0.000228903	170.395
0.0163972	231.179	0.00023209	169.782
0.0165257	229.806	0.000235304	169.17
0.0166545	228.444	0.000238547	168.559
0.0167836	227.095	0.000241818	167.948
0.016913	225.76	0.000245115	167.339
0.0170426	224.438	0.00024844	166.73
0.0171725	223.128	0.000251792	166.122
0.0173027	221.828	0.000255172	165.515
0.0174332	220.54	0.000258582	164.909
0.0175639	219.264	0.000262022	164.304
0.0176949	218.003	0.00026549	163.7
0.0178263	216.754	0.000268985	163.097
0.0179579	215.517	0.000272509	162.494
0.0180897	214.287	0.000276062	161.892
0.0182219	213.065	0.000279646	161.292
0.0183544	211.851	0.000283262	160.692
0.0184872	210.648	0.000286912	160.092
0.0186202	209.461	0.000290594	159.494
0.0187536	208.29	0.000294307	158.896
0.0188873	207.134	0.000298048	158.3
0.0190212	205.988	0.000301818	157.704
0.0191555	204.849	0.000305617	157.108
0.0192901	203.711	0.000309446	156.514
0.0194249	202.572	0.000313306	155.92
0.0195601	201.429	0.000317207	155.327
0.0196956	200.293	0.000321148	154.735
0.0198315	199.168	0.000325127	154.144
0.0199676	198.059	0.00032914	153.554
0.020104	196.966	0.000333188	152.964
0.0202408	195.886	0.000337268	152.376
0.0203779	194.817	0.000341382	151.788
0.0205153	193.755	0.00034553	151.201
0.0206531	192.7	0.000349715	150.614
0.0207911	191.65	0.000353937	150.029
0.0209295	190.607	0.000358197	149.444
0.0210683	189.572	0.000362495	148.86
0.0212073	188.547	0.00036683	148.276
0.0213467	187.529	0.000371201	147.694
0.0214865	186.517	0.000375609	147.112
0.0216266	185.508	0.000380053	146.531
0.021767	184.5	0.000384534	145.95
0.0219078	183.49	0.000389054	145.371
0.0220489	182.48	0.000393622	144.792
0.0221903	181.475	0.000398235	144.214
0.0223321	180.481	0.000402894	143.637
0.0224743	179.501	0.000407594	143.061
0.0226168	178.537	0.000412335	142.486
0.0227597	177.588	0.000417114	141.911
0.0229029	176.651	0.00042193	141.337
0.0230465	175.721	0.000426782	140.764
0.0231904	174.796	0.000431673	140.192
0.0233347	173.872	0.000436603	139.62
0.0234794	172.948	0.000441576	139.049
0.0236244	172.025	0.000446594	138.479
0.0237698	171.107	0.000451657	137.909
0.0239156	170.197	0.000456765	137.34
0.0240618	169.297	0.000461915	136.772
0.0242083	168.408	0.000467104	136.205
0.0243552	167.527	0.000472332	135.639
0.0245025	166.652	0.000477597	135.073
0.0246501	165.78	0.0004829	134.508
0.0247982	164.909	0.000488241	133.944
0.0249466	164.038	0.000493617	133.38
0.0250954	163.162	0.00049903	132.818
0.0252446	162.278	0.000504501	132.256
0.0253942	161.4	0.000510023	131.695
0.0255442	160.536	0.000515587	131.134
0.0256946	159.689	0.000521191	130.575
0.0258453	158.857	0.000526829	130.016
0.0259965	158.039	0.000532499	129.458
0.0261481	157.23	0.000538199	128.901
0.0263001	156.427	0.00054393	128.345
0.0264525	155.626	0.000549693	127.789
0.0266052	154.825	0.000555486	127.234
0.0267584	154.023	0.000561304	126.679
0.026912	153.213	0.000567142	126.126
0.0270661	152.388	0.000573021	125.573
0.0272205	151.553	0.000578966	125.021
0.0273753	150.731	0.000584949	124.47
0.0275306	149.926	0.000590963	123.92
0.0276863	149.138	0.000597001	123.37
0.0278424	148.364	0.000603061	122.822
0.0279989	147.601	0.000609142	122.274
0.0281559	146.845	0.000615242	121.727
0.0283132	146.094	0.000621361	121.18
0.0284711	145.345	0.000627499	120.635
0.0286293	144.598	0.000633657	120.09
0.028788	143.85	0.000639832	119.546
0.0289471	143.102	0.000646024	119.002
0.0291066	142.351	0.000652234	118.46
0.0292666	141.599	0.000658469	117.918
0.029427	140.85	0.000664723	117.377
0.0295879	140.106	0.000670995	116.837
0.0297492	139.368	0.000677281	116.298
0.029911	138.636	0.000683579	115.76
0.0300732	137.912	0.000689886	115.222
0.0302359	137.193	0.000696201	114.686
0.030399	136.48	0.000702522	114.15
0.0305625	135.77	0.000708848	113.615
0.0307266	135.064	0.00071518	113.08
0.030891	134.36	0.000721515	112.547
0.031056	133.659	0.000727855	112.014
0.0312214	132.96	0.000734197	111.482
0.0313873	132.264	0.000740543	110.952
0.0315536	131.57	0.000746889	110.421
0.0317204	130.879	0.000753236	109.892
0.0318877	130.191	0.000759584	109.364
0.0320554	129.506	0.000765932	108.836
0.0322236	128.825	0.00077228	108.31
0.0323923	128.148	0.000778629	107.784
0.0325615	127.476	0.000784977	107.259
0.0327311	126.81	0.000791322	106.735
0.0329012	126.151	0.000797663	106.212
0.0330718	125.497	0.000803998	105.689
0.0332429	124.848	0.000810325	105.168
0.0334145	124.202	0.000816645	104.647
0.0335866	123.558	0.000822957	104.127
0.0337591	122.914	0.000829264	103.608
0.0339322	122.27	0.000835562	103.09
0.0341057	121.625	0.000841855	102.573
0.0342798	120.976	0.000848159	102.057
0.0344543	120.33	0.000854469	101.542
0.0346293	119.689	0.000860781	101.027
0.0348049	119.054	0.000867093	100.514
0.0349809	118.424	0.000873403	100.001
0.0351574	117.798	0.000879714	99.4898
0.0353345	117.177	0.000886026	98.9791
0.035512	116.56	0.000892343	98.4694
0.0356901	115.946	0.000898664	97.9606
0.0358687	115.336	0.000904992	97.4528
0.0360478	114.73	0.000911326	96.9458
0.0362274	114.127	0.000917666	96.4398
0.0364075	113.526	0.000924015	95.9348
0.0365882	112.927	0.000930374	95.4306
0.0367693	112.328	0.000936746	94.9275
0.036951	111.729	0.00094313	94.4253
0.0371332	111.129	0.000949528	93.9241
0.037316	110.525	0.000955961	93.4239
0.0374992	109.922	0.000962431	92.9247
0.037683	109.324	0.000968932	92.4266
0.0378674	108.732	0.000975463	91.9296
0.0380522	108.146	0.000982024	91.4336
0.0382376	107.565	0.000988616	90.9386
0.0384235	106.988	0.000995243	90.4446
0.03861	106.416	0.00100191	89.9516
0.038797	105.846	0.00100861	89.4597
0.0389846	105.28	0.00101536	88.9688
0.0391727	104.717	0.00102216	88.4789
0.0393613	104.155	0.001029	87.99
0.0395505	103.596	0.0010359	87.5022
0.0397403	103.038	0.00104285	87.0154
0.0399305	102.48	0.00104985	86.5297
0.0401214	101.923	0.00105692	86.0451
0.0403128	101.365	0.00106406	85.5615
0.0405047	100.807	0.00107128	85.0791
0.0406973	100.251	0.00107858	84.5978
0.0408903	99.6973	0.00108595	84.1176
0.041084	99.1474	0.00109341	83.6385
0.0412781	98.6014	0.00110095	83.1606
0.0414729	98.0592	0.00110858	82.6838
0.0416682	97.5205	0.0011163	82.2082
0.0418641	96.9844	0.00112411	81.7336
0.0420606	96.4504	0.00113201	81.2603
0.0422576	95.9175	0.00114001	80.788
0.0424552	95.3852	0.00114811	80.3169
0.0426534	94.8529	0.00115632	79.847
0.0428522	94.3204	0.00116463	79.3783
0.0430515	93.7864	0.00117306	78.9109
0.0432514	93.2503	0.00118162	78.4446
0.0434519	92.7156	0.00119032	77.9796
0.043653	92.1843	0.00119914	77.5159
0.0438546	91.6569	0.0012081	77.0535
0.0440569	91.1338	0.00121719	76.5923
0.0442597	90.6147	0.00122642	76.1323
0.0444631	90.099	0.00123577	75.6737
0.0446671	89.586	0.00124527	75.2163
0.0448718	89.0751	0.00125491	74.7601
0.045077	88.5655	0.0012647	74.3053
0.0452828	88.0568	0.00127464	73.8517
0.0454891	87.5484	0.00128474	73.3994
0.0456961	87.0401	0.00129499	72.9485
0.0459037	86.5315	0.0013054	72.4988
0.0461119	86.022	0.00131597	72.0506
0.0463207	85.5107	0.00132671	71.6037
0.0465301	84.9968	0.00133764	71.1582
0.0467401	84.4843	0.00134876	70.7141
0.0469508	83.9748	0.00136007	70.2715
0.047162	83.4693	0.00137156	69.8303
0.0473738	82.9681	0.00138324	69.3905
0.0475863	82.4713	0.00139511	68.9522
0.0477994	81.9785	0.00140717	68.5153
0.048013	81.4888	0.00141941	68.0798
0.0482274	81.0013	0.00143184	67.6457
0.0484423	80.5149	0.00144447	67.2131
0.0486578	80.0289	0.0014573	66.7819
0.048874	79.5426	0.00147033	66.3522
0.0490908	79.0544	0.00148354	65.9239
0.0493082	78.5614	0.00149693	65.4972
0.0495263	78.0584	0.00151047	65.072
0.0497449	77.5376	0.00152415	64.6485
0.0499642	76.9889	0.00153796	64.2268
0.0501842	76.4002	0.0015519	63.8072
0.0504047	75.7587	0.00156598	63.3898
0.050626	75.0533	0.00158038	62.9751
0.0508478	74.2936	0.00159555	62.5634
0.0510703	73.5539	0.00161111	62.1548
0.0512934	72.8488	0.00162691	61.7493
0.0515172	72.176	0.00164293	61.3466
0.0517416	71.5328	0.00165918	60.9466
0.0519666	70.9157	0.00167566	60.5493
0.0521923	70.3211	0.00169235	60.1544
0.0524187	69.7456	0.00170927	59.762
0.0526457	69.1859	0.00172641	59.3719
0.0528733	68.6394	0.0017438	58.984
0.0531016	68.104	0.00176142	58.5984
0.0533306	67.5783	0.00177929	58.2149
0.0535602	67.061	0.00179741	57.8336
0.0537905	66.5515	0.00181578	57.4544
0.0540214	66.0491	0.00183441	57.0773
0.054253	65.5529	0.00185329	56.7023
0.0544852	65.0624	0.00187244	56.3293
0.0547182	64.5766	0.00189183	55.9584
0.0549517	64.0946	0.00191149	55.5895
0.055186	63.6157	0.00193141	55.2227
0.0554209	63.1389	0.00195159	54.8579
0.0556565	62.6636	0.00197205	54.4951
0.0558927	62.1894	0.00199278	54.1344
0.0561296	61.7162	0.00201378	53.7758
0.0563672	61.2441	0.00203508	53.4192
0.0566055	60.7739	0.00205666	53.0648
0.0568445	60.3063	0.00207854	52.7123
0.0570841	59.8424	0.00210071	52.362
0.0573244	59.3832	0.00212318	52.0138
0.0575654	58.9294	0.00214594	51.6675
0.0578071	58.4816	0.002169	51.3234
0.0580494	58.0398	0.00219234	50.9812
0.0582925	57.6037	0.00221597	50.6411
0.0585362	57.1729	0.00223989	50.3029
0.0587807	56.7466	0.0022641	49.9666
0.0590258	56.3242	0.0022886	49.6324
0.0592716	55.9052	0.0023134	49.3
0.0595181	55.4891	0.00233849	48.9696
0.0597653	55.0757	0.00236389	48.6411
0.0600132	54.6648	0.00238959	48.3146
0.0602618	54.2562	0.00241559	47.9899
0.0605111	53.8498	0.0024419	47.6672
0.0607612	53.4457	0.00246853	47.3464
0.0610119	53.0439	0.00249546	47.0276
0.0612633	52.6445	0.00252272	46.7106
0.0615154	52.2477	0.00255029	46.3955
0.0617683	51.8538	0.00257818	46.0824
0.0620219	51.463	0.00260639	45.7711
0.0622761	51.0754	0.00263493	45.4618
0.0625311	50.691	0.00266379	45.1543
0.0627868	50.3098	0.00269297	44.8487
0.0630433	49.9315	0.00272247	44.5449
0.0633004	49.5559	0.0027523	44.243
0.0635583	49.1829	0.00278246	43.943
0.0638169	48.8124	0.00281295	43.6448
0.0640762	48.4443	0.00284377	43.3484
0.0643363	48.0788	0.00287494	43.0539
0.0645971	47.716	0.00290645	42.7612
0.0648586	47.3562	0.0029383	42.4703
0.0651209	46.9996	0.00297049	42.1813
0.0653839	46.6463	0.00300303	41.894
0.0656476	46.2962	0.00303591	41.6085
0.0659121	45.9493	0.00306914	41.3248
0.0661773	45.6054	0.00310272	41.0429
0.0664433	45.2643	0.00313664	40.7627
0.06671	44.926	0.00317092	40.4842
0.0669775	44.59	0.00320556	40.2075
0.0672457	44.2565	0.00324055	39.9326
0.0675146	43.9251	0.0032759	39.6593
0.0677844	43.5957	0.00331162	39.3878
0.0680549	43.2686	0.0033477	39.118
0.0683261	42.9436	0.00338416	38.8499
0.0685981	42.621	0.00342099	38.5835
0.0688709	42.3011	0.0034582	38.3187
0.0691445	41.9841	0.00349579	38.0557
0.0694188	41.6701	0.00353376	37.7943
0.0696939	41.3591	0.00357211	37.5346
0.0699697	41.0509	0.00361084	37.2766
0.0702464	40.7455	0.00364995	37.0201
0.0705238	40.4426	0.00368946	36.7653
0.070802	40.1421	0.00372935	36.5122
0.071081	39.8438	0.00376964	36.2606
0.0713607	39.5478	0.00381033	36.0106
0.0716413	39.2541	0.00385142	35.7622
0.0719227	38.9626	0.00389292	35.5154
0.0722048	38.6735	0.00393483	35.2702
0.0724878	38.3866	0.00397714	35.0265
0.0727715	38.1018	0.00401987	34.7844
0.0730561	37.819	0.00406301	34.5438
0.0733414	37.538	0.00410658	34.3048
0.0736276	37.2588	0.00415057	34.0673
0.0739146	36.9815	0.004195	33.8313
0.0742024	36.7062	0.00423987	33.5969
0.074491	36.4332	0.00428517	33.364
0.0747804	36.1628	0.00433093	33.1326
0.0750707	35.8952	0.00437713	32.9026
0.0753618	35.6306	0.00442379	32.6742
0.0756537	35.3688	0.00447089	32.4472
0.0759464	35.1098	0.00451845	32.2216
0.07624	34.8531	0.00456645	31.9975
0.0765345	34.5983	0.00461492	31.7748
0.0768297	34.3452	0.00466386	31.5536
0.0771258	34.0935	0.00471326	31.3337
0.0774228	33.843	0.00476315	31.1153
0.0777206	33.5936	0.00481353	30.8982
0.0780193	33.3456	0.00486441	30.6826
0.0783188	33.099	0.00491579	30.4684
0.0786192	32.8541	0.00496768	30.2555
0.0789205	32.6112	0.00502008	30.0441
0.0792226	32.3705	0.00507301	29.834
0.0795256	32.1321	0.00512646	29.6252
0.0798295	31.8961	0.00518044	29.4178
0.0801342	31.6626	0.00523495	29.2118
0.0804399	31.4313	0.00529	29.0071
0.0807464	31.2023	0.00534559	28.8037
0.0810539	30.9753	0.00540174	28.6016
0.0813622	30.7502	0.00545844	28.4008
0.0816714	30.5267	0.00551571	28.2012
0.0819816	30.3048	0.00557356	28.003
0.0822926	30.0843	0.00563199	27.806
0.0826046	29.865	0.00569101	27.6103
0.0829175	29.6471	0.00575064	27.4159
0.0832313	29.4306	0.00581089	27.2227
0.083546	29.2157	0.00587176	27.0307
0.0838617	29.0026	0.00593326	26.84
0.0841783	28.7914	0.0059954	26.6505
0.0844959	28.5821	0.00605819	26.4623
0.0848144	28.3747	0.00612163	26.2752
0.0851338	28.169	0.00618573	26.0893
0.0854542	27.965	0.00625051	25.9047
0.0857756	27.7626	0.00631598	25.7212
0.0860979	27.5619	0.00638214	25.5389
0.0864213	27.3629	0.006449	25.3577
0.0867455	27.1655	0.00651658	25.1777
0.0870708	26.9698	0.00658488	24.9989
0.0873971	26.7756	0.00665392	24.8212
0.0877243	26.5829	0.0067237	24.6446
0.0880526	26.3917	0.00679423	24.4691
0.0883818	26.2021	0.00686554	24.2948
0.0887121	26.0141	0.00693762	24.1216
0.0890434	25.8276	0.00701048	23.9494
0.0893757	25.6427	0.00708413	23.7784
0.089709	25.4591	0.00715858	23.6084
0.0900434	25.2766	0.00723385	23.4395
0.0903788	25.0951	0.00730993	23.2717
0.0907153	24.9145	0.00738686	23.1049
0.0910528	24.7346	0.00746463	22.9392
0.0913914	24.5557	0.00754327	22.7745
0.091731	24.3778	0.00762278	22.6109
0.0920718	24.2014	0.00770319	22.4484
0.0924136	24.0265	0.00778449	22.2869
0.0927564	23.8534	0.00786669	22.1264
0.0931004	23.6822	0.0079498	21.9669
0.0934455	23.5129	0.00803383	21.8084
0.0937917	23.3452	0.00811879	21.6509
0.094139	23.179	0.00820468	21.4944
0.0944875	23.0141	0.00829153	21.3389
0.0948371	22.8505	0.00837933	21.1843
0.0951878	22.6881	0.00846812	21.0307
0.0955396	22.5268	0.00855789	20.8781
0.0958927	22.3667	0.00864867	20.7264
0.0962468	22.2077	0.00874046	20.5756
0.0966022	22.05	0.00883328	20.4258
0.0969587	21.8934	0.00892713	20.2769
0.0973165	21.738	0.00902204	20.1289
0.0976754	21.5837	0.009118	19.9818
0.0980355	21.4304	0.00921504	19.8356
0.0983969	21.2781	0.00931317	19.6904
0.0987595	21.1265	0.00941241	19.546
0.0991233	20.9758	0.00951276	19.4025
0.0994883	20.8258	0.00961425	19.2599
0.0998547	20.6766	0.00971689	19.1182
0.100222	20.5282	0.0098207	18.9774
0.100591	20.3809	0.0099257	18.8374
0.100961	20.2348	0.0100319	18.6983
0.101333	20.09	0.0101393	18.56
0.101705	19.9468	0.010248	18.4226
0.102079	19.8051	0.0103578	18.286
0.102455	19.6648	0.010469	18.1503
0.102832	19.5259	0.0105814	18.0154
0.10321	19.3882	0.0106951	17.8813
0.103589	19.2516	0.01081	17.748
0.10397	19.1159	0.0109263	17.6154
0.104352	18.981	0.011044	17.4837
0.104736	18.847	0.011163	17.3528
0.105121	18.7137	0.0112834	17.2226
0.105507	18.5812	0.0114052	17.0932
0.105895	18.4495	0.0115284	16.9646
0.106284	18.3186	0.0116531	16.8368
