# 3D Evrard collapse
# Equivalent 1D problem with 1000 cell co-moving grid
# t = 0.94
# radius	density	radial velocity	pressure
5.73445e-05	5599.25	-7.48435e-05	301.56
0.000172049	5569.39	5.08192e-05	299.576
0.000286748	5462.08	-8.98573e-05	296.316
0.000401471	5205.02	-2.4048e-05	291.479
0.000516207	4649.81	-1.30082e-06	285.822
0.000630956	3734.55	-9.79322e-05	280.219
0.000745738	2712.22	-4.57167e-05	275.55
0.000860546	2075.51	2.19899e-05	272.067
0.000975369	1709.33	6.53639e-05	269.378
0.0010902	1488.87	8.84267e-05	267.174
0.00120504	1345.77	9.95015e-05	265.274
0.00131989	1244.92	0.000103932	263.575
0.00143476	1167.5	0.00010471	262.017
0.00154963	1103.45	0.000103868	260.564
0.00166452	1047.7	0.000102467	259.194
0.00177943	997.824	0.000101028	257.894
0.00189436	952.797	9.98825e-05	256.652
0.00200931	912.31	9.91472e-05	255.462
0.00212429	876.344	9.87845e-05	254.315
0.00223931	844.767	9.87097e-05	253.206
0.00235435	817.155	9.87892e-05	252.129
0.00246943	792.843	9.89532e-05	251.077
0.00258455	771.076	9.91791e-05	250.048
0.0026997	751.135	9.94785e-05	249.038
0.0028149	732.441	9.9895e-05	248.045
0.00293015	714.652	0.000100481	247.067
0.00304544	697.663	0.000101267	246.104
0.00316079	681.5	0.000102252	245.154
0.00327619	666.206	0.000103413	244.217
0.00339164	651.774	0.000104725	243.291
0.00350715	638.145	0.00010617	242.376
0.00362272	625.254	0.000107742	241.471
0.00373835	613.066	0.000109439	240.576
0.00385404	601.591	0.000111245	239.689
0.0039698	590.833	0.00011313	238.811
0.00408563	580.728	0.000115062	237.939
0.00420153	571.131	0.000117022	237.074
0.00431751	561.873	0.000119022	236.216
0.00443356	552.848	0.000121084	235.363
0.00454968	544.049	0.000123224	234.516
0.00466589	535.529	0.000125438	233.675
0.00478218	527.339	0.00012771	232.84
0.00489855	519.478	0.00013002	232.01
0.005015	511.889	0.00013236	231.185
0.00513155	504.504	0.000134737	230.365
0.00524818	497.296	0.000137165	229.55
0.0053649	490.298	0.000139649	228.74
0.00548172	483.573	0.000142179	227.934
0.00559864	477.157	0.000144736	227.133
0.00571565	471.033	0.000147303	226.336
0.00583276	465.156	0.000149878	225.543
0.00594998	459.482	0.000152462	224.754
0.0060673	453.989	0.000155055	223.968
0.00618472	448.668	0.000157654	223.185
0.00630225	443.503	0.000160254	222.405
0.00641989	438.466	0.000162851	221.629
0.00653765	433.529	0.000165449	220.856
0.00665552	428.672	0.000168052	220.085
0.0067735	423.892	0.000170662	219.318
0.0068916	419.197	0.000173279	218.554
0.00700982	414.588	0.000175898	217.793
0.00712816	410.06	0.000178518	217.035
0.00724663	405.597	0.00018114	216.28
0.00736522	401.198	0.000183771	215.528
0.00748394	396.881	0.000186416	214.779
0.00760278	392.685	0.000189074	214.034
0.00772176	388.648	0.000191735	213.291
0.00784087	384.788	0.000194384	212.55
0.00796012	381.083	0.000197008	211.813
0.0080795	377.484	0.000199606	211.077
0.00819903	373.945	0.000202183	210.344
0.00831869	370.443	0.000204749	209.614
0.0084385	366.987	0.000207311	208.885
0.00855845	363.606	0.000209866	208.159
0.00867854	360.321	0.000212406	207.435
0.00879879	357.13	0.000214922	206.713
0.00891919	354.008	0.000217409	205.993
0.00903973	350.917	0.000219868	205.275
0.00916044	347.831	0.000222308	204.559
0.00928129	344.739	0.000224743	203.846
0.00940231	341.678	0.000227176	203.134
0.00952349	338.687	0.000229602	202.425
0.00964483	335.79	0.000232012	201.717
0.00976633	332.989	0.000234399	201.012
0.00988799	330.27	0.000236757	200.309
0.0100098	327.61	0.000239085	199.607
0.0101318	324.984	0.000241384	198.907
0.010254	322.368	0.000243656	198.209
0.0103764	319.753	0.000245909	197.512
0.0104989	317.142	0.000248149	196.818
0.0106216	314.555	0.000250376	196.125
0.0107445	312.011	0.000252588	195.435
0.0108675	309.519	0.000254782	194.746
0.0109908	307.085	0.000256956	194.059
0.0111142	304.712	0.000259109	193.373
0.0112378	302.4	0.000261238	192.69
0.0113616	300.146	0.00026334	192.008
0.0114856	297.942	0.000265411	191.327
0.0116098	295.77	0.000267451	190.648
0.0117341	293.614	0.000269461	189.971
0.0118587	291.463	0.000271442	189.295
0.0119835	289.304	0.000273396	188.62
0.0121085	287.13	0.000275344	187.947
0.0122336	284.98	0.00027728	187.276
0.012359	282.878	0.000279198	186.607
0.0124846	280.833	0.000281094	185.939
0.0126104	278.844	0.000282962	185.272
0.0127364	276.902	0.000284801	184.607
0.0128626	274.997	0.000286612	183.944
0.012989	273.12	0.000288394	183.281
0.0131156	271.264	0.000290149	182.62
0.0132425	269.424	0.000291875	181.96
0.0133695	267.595	0.000293575	181.302
0.0134968	265.77	0.000295248	180.645
0.0136243	263.947	0.000296897	179.989
0.0137521	262.125	0.000298524	179.335
0.01388	260.307	0.000300132	178.682
0.0140082	258.502	0.000301722	178.03
0.0141366	256.717	0.000303294	177.381
0.0142653	254.963	0.000304848	176.732
0.0143941	253.244	0.000306381	176.085
0.0145233	251.567	0.00030789	175.439
0.0146526	249.929	0.000309374	174.795
0.0147822	248.327	0.000310829	174.152
0.014912	246.754	0.000312255	173.509
0.0150421	245.2	0.000313651	172.869
0.0151724	243.655	0.000315017	172.229
0.015303	242.113	0.000316357	171.59
0.0154338	240.568	0.000317675	170.953
0.0155649	239.027	0.000318974	170.316
0.0156962	237.498	0.000320254	169.681
0.0158278	235.988	0.000321514	169.048
0.0159596	234.503	0.00032275	168.415
0.0160917	233.041	0.000323961	167.784
0.0162241	231.6	0.000325145	167.153
0.0163567	230.173	0.000326304	166.524
0.0164895	228.757	0.000327438	165.896
0.0166227	227.349	0.000328548	165.269
0.0167561	225.951	0.000329637	164.644
0.0168898	224.563	0.000330703	164.019
0.0170237	223.188	0.000331748	163.395
0.0171579	221.826	0.00033277	162.773
0.0172924	220.478	0.000333769	162.152
0.0174272	219.141	0.000334745	161.532
0.0175623	217.818	0.0003357	160.913
0.0176976	216.507	0.000336633	160.295
0.0178332	215.21	0.000337544	159.678
0.0179691	213.927	0.000338432	159.062
0.0181053	212.657	0.000339296	158.447
0.0182418	211.396	0.000340137	157.833
0.0183785	210.145	0.000340956	157.221
0.0185156	208.902	0.000341756	156.609
0.018653	207.671	0.000342536	155.999
0.0187906	206.453	0.000343296	155.389
0.0189286	205.251	0.000344035	154.781
0.0190668	204.065	0.000344752	154.173
0.0192054	202.893	0.000345444	153.567
0.0193442	201.73	0.000346111	152.961
0.0194834	200.572	0.000346755	152.356
0.0196228	199.415	0.000347376	151.753
0.0197626	198.257	0.00034798	151.15
0.0199027	197.103	0.000348569	150.549
0.0200431	195.957	0.000349142	149.948
0.0201838	194.824	0.000349697	149.349
0.0203248	193.706	0.000350234	148.75
0.0204662	192.603	0.000350749	148.153
0.0206079	191.511	0.000351243	147.557
0.0207499	190.43	0.000351716	146.961
0.0208922	189.356	0.000352171	146.366
0.0210348	188.289	0.000352607	145.773
0.0211778	187.231	0.000353026	145.18
0.0213211	186.181	0.000353427	144.589
0.0214648	185.14	0.00035381	143.998
0.0216087	184.107	0.000354173	143.408
0.021753	183.081	0.000354517	142.819
0.0218977	182.059	0.000354842	142.231
0.0220427	181.037	0.000355148	141.644
0.022188	180.015	0.00035544	141.058
0.0223337	178.994	0.000355721	140.473
0.0224797	177.978	0.000355992	139.889
0.0226261	176.972	0.000356253	139.306
0.0227728	175.98	0.000356502	138.724
0.0229199	175.003	0.000356736	138.143
0.0230673	174.041	0.000356954	137.563
0.0232151	173.091	0.000357155	136.984
0.0233632	172.149	0.000357338	136.406
0.0235117	171.212	0.000357505	135.829
0.0236606	170.277	0.000357659	135.252
0.0238098	169.344	0.000357803	134.677
0.0239594	168.413	0.000357939	134.102
0.0241093	167.489	0.000358067	133.529
0.0242596	166.573	0.000358186	132.956
0.0244103	165.666	0.000358297	132.384
0.0245614	164.77	0.000358396	131.813
0.0247128	163.881	0.000358483	131.243
0.0248647	162.999	0.000358558	130.674
0.0250169	162.119	0.000358623	130.106
0.0251694	161.24	0.000358679	129.539
0.0253224	160.361	0.000358723	128.973
0.0254757	159.477	0.000358766	128.407
0.0256295	158.59	0.000358819	127.843
0.0257836	157.712	0.000358875	127.28
0.0259381	156.847	0.000358932	126.717
0.026093	155.997	0.000358985	126.156
0.0262483	155.162	0.000359033	125.595
0.026404	154.339	0.000359074	125.036
0.0265601	153.525	0.00035911	124.477
0.0267165	152.716	0.00035914	123.919
0.0268734	151.909	0.000359168	123.362
0.0270307	151.103	0.000359195	122.806
0.0271884	150.295	0.000359216	122.251
0.0273465	149.48	0.000359227	121.696
0.027505	148.651	0.000359262	121.143
0.027664	147.82	0.000359327	120.591
0.0278233	147.003	0.000359405	120.039
0.0279831	146.201	0.000359492	119.489
0.0281432	145.414	0.000359583	118.94
0.0283038	144.639	0.000359679	118.392
0.0284648	143.875	0.000359779	117.844
0.0286263	143.118	0.000359884	117.298
0.0287881	142.365	0.000359996	116.752
0.0289504	141.614	0.000360118	116.207
0.0291131	140.865	0.000360252	115.663
0.0292763	140.115	0.0003604	115.12
0.0294398	139.364	0.000360562	114.578
0.0296039	138.612	0.000360748	114.037
0.0297683	137.861	0.000360958	113.497
0.0299332	137.114	0.000361191	112.958
0.0300985	136.373	0.000361447	112.42
0.0302643	135.638	0.000361726	111.883
0.0304305	134.91	0.000362028	111.347
0.0305971	134.188	0.000362353	110.812
0.0307642	133.472	0.000362702	110.277
0.0309318	132.76	0.000363076	109.744
0.0310998	132.052	0.000363477	109.212
0.0312683	131.347	0.000363907	108.681
0.0314372	130.645	0.000364367	108.15
0.0316065	129.946	0.000364858	107.621
0.0317764	129.25	0.000365383	107.092
0.0319467	128.556	0.000365942	106.565
0.0321174	127.865	0.000366537	106.038
0.0322886	127.177	0.00036717	105.513
0.0324603	126.491	0.000367844	104.989
0.0326325	125.81	0.000368559	104.465
0.0328051	125.133	0.000369318	103.943
0.0329782	124.462	0.000370121	103.421
0.0331518	123.797	0.000370968	102.901
0.0333258	123.137	0.000371859	102.381
0.0335003	122.484	0.000372794	101.863
0.0336753	121.835	0.000373773	101.345
0.0338508	121.19	0.000374797	100.829
0.0340268	120.547	0.000375868	100.313
0.0342033	119.905	0.000376988	99.7988
0.0343802	119.262	0.000378159	99.2852
0.0345576	118.619	0.000379384	98.7727
0.0347356	117.975	0.000380674	98.2612
0.034914	117.333	0.000382027	97.7507
0.0350929	116.695	0.000383441	97.2413
0.0352723	116.061	0.000384917	96.733
0.0354522	115.433	0.000386455	96.2257
0.0356326	114.81	0.000388055	95.7195
0.0358136	114.19	0.00038972	95.2143
0.035995	113.576	0.000391451	94.7102
0.0361769	112.965	0.000393249	94.2071
0.0363594	112.359	0.000395114	93.705
0.0365423	111.756	0.000397048	93.204
0.0367258	111.156	0.00039905	92.704
0.0369097	110.559	0.000401122	92.2051
0.0370942	109.963	0.000403266	91.7072
0.0372792	109.367	0.000405484	91.2104
0.0374648	108.771	0.000407776	90.7146
0.0376508	108.174	0.000410145	90.2199
0.0378374	107.575	0.000412608	89.7264
0.0380245	106.979	0.000415161	89.234
0.0382121	106.386	0.000417802	88.7428
0.0384003	105.799	0.000420529	88.2526
0.038589	105.216	0.000423342	87.7637
0.0387782	104.639	0.000426241	87.2758
0.038968	104.067	0.000429228	86.789
0.0391583	103.498	0.000432305	86.3034
0.0393491	102.934	0.000435472	85.8189
0.0395405	102.372	0.00043873	85.3354
0.0397324	101.814	0.000442082	84.8531
0.0399249	101.258	0.000445526	84.3719
0.0401179	100.703	0.000449066	83.8919
0.0403115	100.15	0.000452701	83.4129
0.0405056	99.5963	0.000456435	82.9351
0.0407003	99.043	0.000460273	82.4584
0.0408955	98.4901	0.000464216	81.983
0.0410913	97.9381	0.000468269	81.5087
0.0412876	97.3882	0.000472431	81.0356
0.0414845	96.8411	0.000476704	80.5637
0.041682	96.2975	0.000481087	80.093
0.04188	95.7577	0.000485579	79.6235
0.0420786	95.2215	0.00049018	79.1552
0.0422778	94.6886	0.000494891	78.6881
0.0424776	94.1582	0.000499711	78.2222
0.0426779	93.6297	0.000504643	77.7575
0.0428787	93.1023	0.000509687	77.294
0.0430802	92.5753	0.000514845	76.8318
0.0432822	92.0484	0.000520119	76.3707
0.0434849	91.5212	0.000525507	75.911
0.0436881	90.9925	0.00053102	75.4525
0.0438919	90.4633	0.000536667	74.9953
0.0440962	89.9363	0.000542443	74.5394
0.0443012	89.4125	0.000548346	74.0848
0.0445068	88.8924	0.000554373	73.6315
0.0447129	88.3764	0.000560525	73.1796
0.0449196	87.864	0.0005668	72.7289
0.045127	87.3549	0.000573198	72.2796
0.0453349	86.8483	0.00057972	71.8316
0.0455434	86.3437	0.000586365	71.3848
0.0457526	85.8404	0.000593135	70.9394
0.0459623	85.3379	0.000600032	70.4953
0.0461727	84.8357	0.000607056	70.0526
0.0463836	84.3336	0.000614208	69.6112
0.0465952	83.8312	0.000621486	69.1711
0.0468074	83.328	0.000628887	68.7325
0.0470202	82.8227	0.000636425	68.2953
0.0472336	82.3161	0.000644114	67.8595
0.0474476	81.8117	0.000651943	67.4251
0.0476623	81.3105	0.000659909	66.9923
0.0478776	80.8134	0.000668008	66.5608
0.0480935	80.3206	0.000676237	66.1309
0.04831	79.8318	0.000684594	65.7023
0.0485272	79.3465	0.000693075	65.2752
0.0487449	78.8638	0.000701679	64.8496
0.0489634	78.3827	0.000710406	64.4254
0.0491824	77.9023	0.000719257	64.0026
0.0494021	77.422	0.000728231	63.5813
0.0496225	76.9412	0.000737317	63.1615
0.0498434	76.458	0.000746504	62.7432
0.0500651	75.9691	0.000755775	62.3264
0.0502873	75.4694	0.000765112	61.9112
0.0505102	74.9514	0.000774494	61.4978
0.0507338	74.4056	0.000783906	61.0862
0.050958	73.8209	0.000793341	60.6766
0.0511829	73.1855	0.000802818	60.2694
0.0514085	72.4894	0.000812556	59.8648
0.0516347	71.7497	0.000822924	59.4632
0.0518615	71.0343	0.000833507	59.0647
0.052089	70.3512	0.000844201	58.6691
0.0523172	69.6987	0.000854987	58.2764
0.0525461	69.0737	0.000865857	57.8863
0.0527756	68.473	0.000876804	57.4987
0.0530058	67.8932	0.000887825	57.1136
0.0532367	67.3311	0.000898917	56.7309
0.0534683	66.7839	0.000910079	56.3504
0.0537005	66.2493	0.000921312	55.9722
0.0539334	65.7255	0.000932615	55.5962
0.054167	65.2112	0.000943985	55.2223
0.0544013	64.7053	0.00095542	54.8505
0.0546363	64.2069	0.000966915	54.4808
0.054872	63.7153	0.000978466	54.1132
0.0551083	63.2298	0.000990067	53.7477
0.0553454	62.7495	0.00100171	53.3841
0.0555832	62.2735	0.0010134	53.0226
0.0558216	61.8009	0.00102511	52.663
0.0560608	61.3308	0.00103686	52.3055
0.0563007	60.8626	0.00104862	51.95
0.0565413	60.3956	0.0010604	51.5965
0.0567826	59.9297	0.0010722	51.2451
0.0570246	59.4648	0.00108401	50.8956
0.0572673	59.0015	0.00109583	50.5482
0.0575108	58.5406	0.00110766	50.2029
0.0577549	58.0829	0.00111948	49.8596
0.0579998	57.6294	0.00113129	49.5183
0.0582455	57.1809	0.00114309	49.1791
0.0584918	56.738	0.00115486	48.8418
0.0587389	56.3007	0.0011666	48.5066
0.0589867	55.869	0.00117829	48.1733
0.0592353	55.4425	0.00118993	47.8419
0.0594846	55.0207	0.00120152	47.5125
0.0597346	54.6031	0.00121304	47.185
0.0599854	54.1891	0.0012245	46.8595
0.060237	53.7783	0.00123589	46.5358
0.0604893	53.3703	0.00124721	46.214
0.0607423	52.9648	0.00125845	45.8941
0.0609961	52.5617	0.00126962	45.576
0.0612507	52.1609	0.00128071	45.2599
0.061506	51.7622	0.00129171	44.9456
0.0617621	51.3658	0.00130263	44.6332
0.062019	50.9717	0.00131346	44.3227
0.0622767	50.5802	0.00132419	44.014
0.0625351	50.1915	0.00133484	43.7072
0.0627943	49.8057	0.00134538	43.4023
0.0630543	49.423	0.00135583	43.0992
0.063315	49.0435	0.00136617	42.7979
0.0635766	48.6669	0.00137639	42.4985
0.063839	48.2932	0.0013865	42.2009
0.0641021	47.9222	0.0013965	41.9051
0.064366	47.5538	0.00140638	41.6111
0.0646308	47.1877	0.00141613	41.3189
0.0648964	46.8241	0.00142577	41.0286
0.0651627	46.4631	0.00143529	40.74
0.0654299	46.1047	0.00144469	40.4531
0.0656979	45.7493	0.00145396	40.1681
0.0659667	45.3969	0.0014631	39.8848
0.0662364	45.0477	0.00147211	39.6033
0.0665068	44.7016	0.00148099	39.3235
0.0667781	44.3585	0.00148974	39.0454
0.0670503	44.0185	0.00149834	38.7691
0.0673232	43.6813	0.00150681	38.4944
0.067597	43.3467	0.00151513	38.2215
0.0678717	43.0146	0.00152331	37.9502
0.0681472	42.6847	0.00153135	37.6807
0.0684236	42.3569	0.00153924	37.4128
0.0687008	42.0312	0.001547	37.1466
0.0689789	41.7076	0.00155461	36.882
0.0692579	41.3862	0.00156208	36.6191
0.0695377	41.0672	0.00156942	36.3579
0.0698184	40.7509	0.00157661	36.0983
0.0701	40.4373	0.00158366	35.8403
0.0703825	40.1266	0.00159056	35.5839
0.0706658	39.8187	0.00159732	35.3292
0.0709501	39.5136	0.00160393	35.076
0.0712352	39.2111	0.0016104	34.8245
0.0715213	38.911	0.00161672	34.5745
0.0718082	38.6133	0.00162289	34.326
0.0720961	38.3179	0.00162893	34.0792
0.0723849	38.0248	0.00163482	33.8338
0.0726746	37.7339	0.00164056	33.59
0.0729653	37.4453	0.00164617	33.3478
0.0732568	37.1589	0.00165164	33.107
0.0735494	36.8746	0.00165696	32.8678
0.0738428	36.5923	0.00166215	32.6301
0.0741372	36.3117	0.0016672	32.3939
0.0744326	36.033	0.00167212	32.1591
0.0747289	35.756	0.00167691	31.9259
0.0750262	35.4809	0.00168157	31.6941
0.0753244	35.2079	0.00168612	31.4638
0.0756237	34.9373	0.00169054	31.235
0.0759239	34.6694	0.00169485	31.0076
0.0762251	34.4042	0.00169904	30.7816
0.0765273	34.1419	0.00170311	30.557
0.0768304	33.8823	0.00170706	30.3339
0.0771346	33.6251	0.00171089	30.1121
0.0774399	33.3701	0.0017146	29.8918
0.0777461	33.1168	0.00171821	29.6728
0.0780533	32.865	0.0017217	29.4552
0.0783616	32.6145	0.00172509	29.2389
0.0786709	32.3652	0.00172839	29.024
0.0789813	32.1171	0.00173159	28.8104
0.0792927	31.8704	0.00173472	28.5982
0.0796052	31.6252	0.00173776	28.3874
0.0799187	31.3819	0.00174073	28.1778
0.0802334	31.1405	0.00174362	27.9696
0.0805491	30.9014	0.00174645	27.7627
0.0808658	30.6646	0.0017492	27.5571
0.0811837	30.4301	0.00175189	27.3528
0.0815027	30.1979	0.00175452	27.1498
0.0818228	29.9679	0.00175708	26.9481
0.082144	29.74	0.00175959	26.7476
0.0824663	29.5139	0.00176204	26.5483
0.0827898	29.2895	0.00176444	26.3503
0.0831144	29.0665	0.00176679	26.1535
0.0834402	28.8449	0.00176911	25.958
0.0837671	28.6245	0.00177141	25.7636
0.0840952	28.4056	0.00177368	25.5705
0.0844245	28.1881	0.00177594	25.3786
0.0847549	27.9722	0.00177819	25.1879
0.0850866	27.758	0.00178043	24.9983
0.0854194	27.5456	0.00178267	24.8099
0.0857535	27.335	0.00178491	24.6227
0.0860888	27.1261	0.00178716	24.4367
0.0864253	26.9189	0.00178942	24.2518
0.0867631	26.7135	0.00179171	24.0681
0.0871021	26.5096	0.00179402	23.8854
0.0874424	26.3074	0.00179636	23.7039
0.0877839	26.1069	0.00179874	23.5235
0.0881268	25.9078	0.00180117	23.3443
0.0884709	25.7103	0.00180365	23.1661
0.0888164	25.5144	0.0018062	22.989
0.0891631	25.32	0.00180882	22.8129
0.0895112	25.1271	0.00181152	22.638
0.0898606	24.9359	0.00181431	22.4641
0.0902114	24.7462	0.00181719	22.2912
0.0905636	24.5579	0.00182018	22.1194
0.0909171	24.371	0.00182328	21.9487
0.091272	24.1851	0.0018265	21.7789
0.0916283	24.0002	0.00182986	21.6102
0.091986	23.816	0.00183336	21.4425
0.0923452	23.6327	0.00183702	21.2758
0.0927058	23.4503	0.00184086	21.1101
0.0930678	23.269	0.00184489	20.9454
0.0934313	23.0891	0.00184911	20.7817
0.0937963	22.9108	0.00185354	20.619
0.0941628	22.7342	0.00185818	20.4572
0.0945307	22.5593	0.00186302	20.2965
0.0949002	22.3861	0.00186809	20.1367
0.0952713	22.2145	0.00187339	19.9778
0.0956439	22.0444	0.00187893	19.8198
0.0960181	21.8755	0.00188472	19.6628
0.0963938	21.7079	0.00189078	19.5067
0.0967712	21.5415	0.0018971	19.3515
0.0971501	21.3762	0.00190371	19.1972
0.0975307	21.2121	0.00191061	19.0439
0.097913	21.0493	0.00191781	18.8913
0.0982969	20.8875	0.00192532	18.7397
0.0986825	20.7269	0.00193314	18.589
0.0990698	20.5674	0.00194129	18.4391
0.0994588	20.4089	0.00194978	18.29
0.0998495	20.2512	0.0019586	18.1419
0.100242	20.0943	0.00196778	17.9945
0.100636	19.938	0.00197733	17.848
0.101032	19.7825	0.00198725	17.7024
0.10143	19.6278	0.00199756	17.5576
0.10183	19.4739	0.00200828	17.4136
0.102232	19.3212	0.0020194	17.2704
0.102635	19.1697	0.00203094	17.1281
0.10304	19.0196	0.00204291	16.9865
0.103448	18.871	0.0020553	16.8458
0.103857	18.7238	0.00206812	16.7058
0.104268	18.578	0.00208137	16.5666
0.104681	18.4334	0.00209507	16.4282
0.105096	18.2899	0.00210923	16.2906
0.105513	18.1475	0.00212384	16.1537
0.105933	18.0058	0.00213892	16.0175
0.106354	17.865	0.00215447	15.8821
0.106777	17.7249	0.00217051	15.7474
0.107203	17.5856	0.00218705	15.6135
0.107631	17.447	0.00220409	15.4803
0.108061	17.3092	0.00222163	15.3478
0.108493	17.1723	0.00223968	15.216
0.108927	17.0363	0.00225825	15.085
0.109364	16.9012	0.00227732	14.9546
0.109802	16.767	0.00229691	14.8249
0.110244	16.6337	0.00231701	14.696
0.110687	16.5012	0.00233763	14.5677
0.111133	16.3695	0.00235876	14.4401
0.111581	16.2387	0.00238041	14.3132
0.112032	16.1088	0.00240256	14.1869
