# 3D Evrard collapse
# Equivalent 1D problem with 1000 cell co-moving grid
# t = 0.12
# radius	density	radial velocity	pressure
9.86669e-05	402.008	-0.000235792	3.70022
0.000296009	275.98	-0.000862078	3.68857
0.000493519	203.29	-0.00135693	3.6685
0.000691243	170.771	-0.00192067	3.64999
0.000889298	150.374	-0.00246178	3.63092
0.00108778	134.845	-0.00299747	3.61185
0.0012868	122.497	-0.00352362	3.59286
0.00148645	112.703	-0.0040422	3.57398
0.00168683	104.979	-0.00455551	3.55515
0.00188801	98.8331	-0.00506497	3.5363
0.00209009	93.8052	-0.00557165	3.51734
0.00229315	89.5243	-0.006077	3.49824
0.00249725	85.7337	-0.00658243	3.47898
0.00270247	82.278	-0.00708961	3.45957
0.00290885	79.0728	-0.00760012	3.44007
0.00311645	76.0748	-0.00811545	3.4205
0.00332531	73.2622	-0.00863716	3.40092
0.00353548	70.6267	-0.00916683	3.38137
0.00374698	68.1716	-0.00970529	3.36187
0.00395983	65.908	-0.0102533	3.34245
0.00417405	63.8452	-0.0108115	3.32309
0.00438965	61.9797	-0.0113801	3.3038
0.00460664	60.2917	-0.0119594	3.28454
0.00482502	58.7529	-0.0125493	3.2653
0.00504478	57.3343	-0.0131495	3.24607
0.0052659	56.0084	-0.0137596	3.22681
0.00548839	54.75	-0.0143787	3.20753
0.00571221	53.5385	-0.0150063	3.18823
0.00593735	52.3624	-0.0156413	3.16891
0.00616379	51.2204	-0.0162829	3.14957
0.00639149	50.1182	-0.0169302	3.13022
0.00662042	49.0611	-0.0175821	3.11087
0.00685056	48.0503	-0.0182379	3.09152
0.00708188	47.0847	-0.0188967	3.07218
0.00731432	46.162	-0.019558	3.05284
0.00754788	45.2778	-0.0202211	3.03351
0.00778249	44.4303	-0.0208857	3.01419
0.00801814	43.6199	-0.0215515	2.99489
0.00825479	42.8466	-0.0222183	2.97562
0.00849239	42.1102	-0.0228862	2.95636
0.00873091	41.4107	-0.0235552	2.93713
0.00897032	40.7413	-0.0242254	2.91791
0.00921058	40.0878	-0.0248972	2.89873
0.00945167	39.4411	-0.0255707	2.87958
0.00969353	38.803	-0.0262462	2.86047
0.00993616	38.1806	-0.0269241	2.84142
0.0101795	37.5791	-0.0276047	2.82243
0.0104235	36.9992	-0.0282884	2.80349
0.0106683	36.4396	-0.0289753	2.78462
0.0109136	35.8972	-0.0296658	2.7658
0.0111596	35.3678	-0.0303601	2.74705
0.0114061	34.8476	-0.0310583	2.72836
0.0116532	34.3356	-0.0317603	2.70974
0.0119009	33.8368	-0.0324664	2.6912
0.012149	33.359	-0.0331764	2.67272
0.0123977	32.9062	-0.0338903	2.65432
0.0126468	32.4733	-0.0346081	2.63598
0.0128964	32.0507	-0.0353295	2.61771
0.0131464	31.6342	-0.0360544	2.5995
0.0133969	31.2274	-0.0367826	2.58136
0.0136477	30.8326	-0.0375139	2.56329
0.013899	30.448	-0.0382482	2.54528
0.0141506	30.0723	-0.0389852	2.52735
0.0144025	29.7039	-0.0397249	2.50949
0.0146549	29.341	-0.0404671	2.49171
0.0149075	28.982	-0.0412118	2.474
0.0151605	28.6269	-0.0419588	2.45637
0.0154138	28.2774	-0.0427081	2.43882
0.0156674	27.9353	-0.0434598	2.42135
0.0159213	27.6005	-0.0442138	2.40397
0.0161755	27.2719	-0.0449703	2.38667
0.01643	26.9473	-0.0457293	2.36946
0.0166849	26.6287	-0.046491	2.35233
0.0169401	26.3153	-0.0472554	2.33529
0.0171955	26.0085	-0.0480228	2.31833
0.0174514	25.7107	-0.0487933	2.30146
0.0177076	25.4246	-0.049567	2.28466
0.0179641	25.1504	-0.0503441	2.26794
0.0182211	24.8855	-0.051125	2.25129
0.0184784	24.6247	-0.0519096	2.23471
0.0187362	24.3643	-0.0526983	2.21819
0.0189944	24.1034	-0.053491	2.20175
0.0192532	23.8439	-0.0542881	2.18537
0.0195125	23.5887	-0.0550895	2.16906
0.0197723	23.3402	-0.0558956	2.15281
0.0200327	23.0995	-0.0567063	2.13663
0.0202938	22.8661	-0.0575219	2.1205
0.0205556	22.6369	-0.0583424	2.10442
0.0208181	22.4077	-0.059168	2.0884
0.0210813	22.1746	-0.0599986	2.07242
0.0213454	21.9385	-0.0608343	2.0565
0.0216103	21.7054	-0.0616752	2.04063
0.0218761	21.4791	-0.0625213	2.0248
0.0221429	21.2609	-0.0633728	2.00902
0.0224107	21.0489	-0.0642297	1.99328
0.0226795	20.8404	-0.065092	1.97757
0.0229494	20.634	-0.0659599	1.96189
0.0232205	20.4303	-0.0668334	1.94624
0.0234927	20.229	-0.0677126	1.93061
0.0237662	20.0288	-0.0685976	1.91501
0.0240409	19.8282	-0.0694886	1.89944
0.0243169	19.6249	-0.0703857	1.88389
0.0245942	19.4214	-0.071289	1.86837
0.0248728	19.2208	-0.0721988	1.85288
0.0251528	19.0252	-0.0731151	1.83742
0.0254342	18.8352	-0.0740384	1.82199
0.025717	18.6492	-0.0749687	1.80657
0.0260013	18.4644	-0.0759065	1.79119
0.0262869	18.2801	-0.0768519	1.77582
0.026574	18.0977	-0.0778052	1.76048
0.0268626	17.9196	-0.0787667	1.74517
0.0271525	17.7457	-0.0797368	1.72988
0.0274439	17.5737	-0.0807158	1.71461
0.0277367	17.4015	-0.0817038	1.69937
0.0280308	17.2268	-0.0827012	1.68416
0.0283263	17.0506	-0.0837079	1.66898
0.0286232	16.8752	-0.0847241	1.65384
0.0289213	16.7017	-0.0857499	1.63874
0.0292208	16.5313	-0.086785	1.62369
0.0295214	16.3649	-0.0878295	1.60868
0.0298232	16.2026	-0.088883	1.59372
0.0301262	16.0437	-0.0899452	1.57882
0.0304302	15.8871	-0.0910159	1.56396
0.0307353	15.7318	-0.0920946	1.54917
0.0310414	15.5773	-0.093181	1.53443
0.0313483	15.4236	-0.0942746	1.51977
0.0316562	15.271	-0.0953752	1.50517
0.0319648	15.1196	-0.0964823	1.49065
0.0322741	14.9695	-0.0975958	1.4762
0.0325841	14.8205	-0.0987153	1.46184
0.0328948	14.6723	-0.0998407	1.44755
0.0332059	14.525	-0.100972	1.43335
0.0335176	14.3787	-0.102109	1.41924
0.0338296	14.2334	-0.103251	1.40521
0.034142	14.09	-0.104398	1.39128
0.0344547	13.949	-0.105551	1.37743
0.0347677	13.8107	-0.106708	1.36367
0.0350808	13.6754	-0.107871	1.35
0.0353941	13.5429	-0.109039	1.33642
0.0357074	13.4125	-0.110211	1.32294
0.0360208	13.2835	-0.111389	1.30954
0.0363342	13.156	-0.112571	1.29624
0.0366476	13.0308	-0.113758	1.28303
0.0369609	12.9078	-0.114949	1.26992
0.0372741	12.7852	-0.116146	1.2569
0.0375872	12.6618	-0.117347	1.24398
0.0379002	12.538	-0.118554	1.23116
0.038213	12.4152	-0.119765	1.21844
0.0385257	12.2947	-0.120981	1.20582
0.0388382	12.177	-0.122202	1.19331
0.0391506	12.0615	-0.123429	1.1809
0.0394629	11.9476	-0.12466	1.16859
0.039775	11.8348	-0.125897	1.15638
0.040087	11.7232	-0.127138	1.14427
0.040399	11.6126	-0.128385	1.13226
0.0407109	11.5035	-0.129637	1.12035
0.0410228	11.3957	-0.130895	1.10853
0.0413347	11.289	-0.132158	1.09681
0.0416468	11.183	-0.133427	1.08518
0.041959	11.0775	-0.134701	1.07365
0.0422714	10.9726	-0.135981	1.0622
0.0425841	10.8688	-0.137268	1.05084
0.0428971	10.7663	-0.138562	1.03956
0.0432106	10.6653	-0.139863	1.02836
0.0435246	10.5657	-0.141172	1.01723
0.0438392	10.467	-0.142489	1.00617
0.0441545	10.3689	-0.143815	0.995181
0.0444706	10.2712	-0.14515	0.98425
0.0447876	10.1742	-0.146496	0.973376
0.0451056	10.0777	-0.147852	0.962555
0.0454247	9.98163	-0.14922	0.951785
0.045745	9.88596	-0.150598	0.941062
0.0460667	9.79134	-0.151989	0.930385
0.0463898	9.69825	-0.153392	0.91975
0.0467144	9.60613	-0.154806	0.909155
0.0470408	9.51394	-0.156232	0.898599
0.0473689	9.42116	-0.157671	0.888084
0.047699	9.32841	-0.15912	0.877608
0.0480311	9.23623	-0.160582	0.867172
0.0483653	9.14472	-0.162055	0.856774
0.0487018	9.05402	-0.163539	0.846415
0.0490406	8.96438	-0.165036	0.836092
0.049382	8.87577	-0.166545	0.825804
0.0497259	8.78773	-0.168066	0.815548
0.0500725	8.69963	-0.1696	0.805326
0.050422	8.61087	-0.171147	0.795136
0.0507743	8.52092	-0.172707	0.784982
0.0511296	8.43084	-0.174281	0.774865
0.051488	8.34138	-0.175867	0.764787
0.0518496	8.25294	-0.177466	0.754752
0.0522144	8.16555	-0.179076	0.744761
0.0525826	8.07903	-0.180697	0.734818
0.0529542	7.99309	-0.182327	0.724928
0.0533292	7.90747	-0.183966	0.715094
0.0537078	7.82217	-0.185612	0.705323
0.05409	7.73737	-0.187264	0.69562
0.0544758	7.65327	-0.188919	0.685989
0.0548653	7.56986	-0.190577	0.676436
0.0552585	7.48693	-0.192235	0.666967
0.0556555	7.40429	-0.193891	0.657589
0.0560564	7.32191	-0.195543	0.648307
0.056461	7.24009	-0.197188	0.639127
0.0568695	7.1592	-0.198824	0.630055
0.0572819	7.07948	-0.20045	0.621094
0.0576982	7.00092	-0.202063	0.612249
0.0581184	6.92331	-0.203659	0.603527
0.0585425	6.84639	-0.205236	0.594933
0.0589705	6.76994	-0.206791	0.586474
0.0594024	6.69394	-0.208319	0.578156
0.0598383	6.6186	-0.209819	0.569987
0.0602781	6.54429	-0.211287	0.561972
0.0607218	6.47138	-0.21272	0.554117
0.0611694	6.40012	-0.214114	0.546425
0.0616209	6.33064	-0.215469	0.538898
0.0620763	6.2629	-0.216782	0.531538
0.0625355	6.19669	-0.218052	0.524345
0.0629986	6.13167	-0.219279	0.517318
0.0634655	6.06756	-0.220461	0.510457
0.0639363	6.00435	-0.221599	0.503762
0.0644108	5.94225	-0.222692	0.497229
0.064889	5.88134	-0.223741	0.490856
0.065371	5.82144	-0.224747	0.484642
0.0658567	5.76242	-0.225709	0.478582
0.0663461	5.70436	-0.226629	0.472675
0.0668391	5.64753	-0.227506	0.466917
0.0673358	5.59216	-0.228342	0.461303
0.067836	5.53835	-0.229138	0.45583
0.0683398	5.48597	-0.229893	0.450492
0.0688472	5.43471	-0.230609	0.445285
0.069358	5.38418	-0.231287	0.440206
0.0698723	5.334	-0.231928	0.435248
0.0703899	5.284	-0.232532	0.430409
0.0709109	5.23448	-0.233101	0.425685
0.0714353	5.18584	-0.233636	0.42107
0.0719628	5.13834	-0.234137	0.416561
0.0724935	5.09214	-0.234607	0.412152
0.0730273	5.04727	-0.235045	0.40784
0.0735641	5.00365	-0.235453	0.403621
0.0741039	4.96111	-0.235833	0.399489
0.0746465	4.91946	-0.236186	0.395439
0.0751918	4.87847	-0.236517	0.391463
0.0757398	4.83787	-0.23683	0.387552
0.0762904	4.79727	-0.237131	0.383695
0.0768434	4.7563	-0.237426	0.379882
0.0773988	4.71486	-0.237722	0.376101
0.0779564	4.67319	-0.238027	0.372342
0.0785162	4.6316	-0.238353	0.368588
0.079078	4.59034	-0.238713	0.364819
0.0796418	4.54954	-0.239125	0.361003
0.0802075	4.50897	-0.239619	0.357095
0.0807751	4.46793	-0.240237	0.35303
0.0813446	4.42528	-0.241038	0.34872
0.0819161	4.37968	-0.242099	0.344048
0.0824897	4.32984	-0.243526	0.338864
0.0830658	4.27444	-0.24545	0.332982
0.0836448	4.21204	-0.248023	0.326199
0.0842274	4.14109	-0.251399	0.318331
0.0848146	4.06064	-0.255682	0.30929
0.0854074	3.97131	-0.260867	0.299193
0.0860071	3.87721	-0.266594	0.288588
0.0866146	3.79024	-0.271774	0.278965
0.0872302	3.71265	-0.276191	0.270568
0.0878531	3.6428	-0.279972	0.263161
0.0884827	3.57903	-0.283258	0.256518
0.0891182	3.52002	-0.286168	0.250458
0.0897587	3.46476	-0.28879	0.244849
0.0904037	3.41253	-0.291189	0.239601
0.0910525	3.36278	-0.293408	0.23465
0.0917047	3.31511	-0.295479	0.229951
0.0923599	3.26922	-0.297424	0.225474
0.0930179	3.22488	-0.29926	0.221192
0.0936782	3.18194	-0.301	0.217088
0.0943407	3.14029	-0.302654	0.213145
0.0950052	3.09991	-0.30423	0.209352
0.0956716	3.06077	-0.305735	0.205698
0.0963397	3.02283	-0.307173	0.202174
0.0970095	2.98597	-0.308551	0.198772
0.0976808	2.95003	-0.309873	0.195483
0.0983537	2.91493	-0.311143	0.192299
0.099028	2.88069	-0.312368	0.189215
0.0997039	2.84742	-0.313549	0.186223
0.100381	2.81514	-0.314691	0.183317
0.10106	2.78366	-0.315797	0.180494
0.101741	2.75269	-0.316867	0.177749
0.102423	2.72218	-0.317903	0.175078
0.103107	2.69241	-0.318906	0.172479
0.103793	2.66359	-0.319878	0.169949
0.10448	2.63556	-0.320819	0.167484
0.10517	2.60808	-0.321733	0.165081
0.105862	2.58105	-0.322619	0.162737
0.106556	2.55436	-0.32348	0.160449
0.107253	2.52796	-0.324318	0.158215
0.107952	2.50187	-0.325134	0.156033
0.108653	2.47613	-0.325929	0.153899
0.109358	2.45081	-0.326704	0.151814
0.110065	2.42602	-0.327461	0.149773
0.110775	2.40183	-0.328201	0.147776
0.111488	2.37823	-0.328923	0.14582
0.112204	2.35515	-0.329629	0.143903
0.112924	2.3325	-0.330319	0.142024
0.113646	2.31016	-0.330993	0.140181
0.114373	2.28806	-0.33165	0.138372
0.115102	2.26615	-0.332292	0.136597
0.115836	2.24443	-0.332918	0.134853
0.116573	2.22297	-0.333527	0.133141
0.117313	2.20186	-0.33412	0.131458
0.118058	2.18119	-0.334697	0.129804
0.118806	2.16092	-0.335258	0.128178
0.119558	2.14096	-0.335804	0.126578
0.120314	2.1212	-0.336335	0.125005
0.121074	2.10155	-0.336854	0.123457
0.121838	2.08189	-0.337359	0.121934
0.122606	2.06229	-0.337854	0.120435
0.123378	2.04284	-0.338337	0.118961
0.124154	2.02365	-0.338811	0.117512
0.124934	2.00483	-0.339275	0.116088
0.125718	1.98648	-0.33973	0.114688
0.126506	1.9686	-0.340178	0.113313
0.127297	1.95112	-0.340617	0.111962
0.128093	1.93391	-0.34105	0.110635
0.128894	1.91685	-0.341478	0.109333
0.129698	1.89989	-0.341899	0.108053
0.130506	1.88307	-0.342316	0.106796
0.131318	1.86647	-0.342729	0.10556
0.132135	1.85013	-0.343138	0.104344
0.132955	1.83404	-0.343542	0.103147
0.13378	1.81818	-0.343941	0.101969
0.134609	1.80252	-0.344334	0.100809
0.135443	1.78704	-0.344719	0.0996664
0.136281	1.77169	-0.345095	0.0985413
0.137123	1.75646	-0.345463	0.0974332
0.13797	1.7413	-0.345822	0.0963417
0.138821	1.72623	-0.346173	0.0952663
0.139677	1.71132	-0.346516	0.0942065
0.140537	1.69666	-0.34685	0.0931623
0.141402	1.68226	-0.347177	0.0921331
0.142272	1.6681	-0.347497	0.0911188
0.143147	1.65414	-0.34781	0.0901189
0.144027	1.64033	-0.348116	0.089133
0.144911	1.62664	-0.348418	0.0881605
0.145801	1.6131	-0.348715	0.0872006
0.146696	1.5997	-0.34901	0.0862528
0.147595	1.58642	-0.3493	0.085317
0.1485	1.57323	-0.349586	0.0843935
0.149411	1.56009	-0.349867	0.0834826
0.150326	1.547	-0.35014	0.0825847
0.151247	1.534	-0.350406	0.0816998
0.152173	1.52113	-0.350665	0.0808281
0.153105	1.50844	-0.350917	0.0799692
0.154042	1.49597	-0.351163	0.0791224
0.154984	1.48372	-0.351407	0.0782865
0.155932	1.47168	-0.351651	0.0774606
0.156886	1.45981	-0.351894	0.0766443
0.157844	1.44804	-0.352137	0.0758377
0.158809	1.43636	-0.352378	0.0750414
0.159779	1.42478	-0.352616	0.074256
0.160755	1.41333	-0.352848	0.0734816
0.161736	1.40199	-0.353072	0.0727187
0.162723	1.39074	-0.353289	0.0719669
0.163715	1.37956	-0.3535	0.0712257
0.164714	1.36842	-0.353704	0.0704942
0.165718	1.35732	-0.353905	0.0697717
0.166728	1.34629	-0.354103	0.0690575
0.167743	1.33536	-0.3543	0.0683511
0.168765	1.32455	-0.354495	0.0676525
0.169792	1.31387	-0.354688	0.0669622
0.170825	1.30333	-0.354878	0.0662804
0.171865	1.29293	-0.355065	0.0656075
0.17291	1.28266	-0.355247	0.0649437
0.173961	1.27251	-0.355426	0.0642891
0.175019	1.2625	-0.355601	0.0636433
0.176082	1.25264	-0.355773	0.0630062
0.177152	1.24292	-0.355943	0.0623773
0.178228	1.23331	-0.356112	0.061756
0.17931	1.22376	-0.356279	0.0611423
0.180399	1.21424	-0.356445	0.0605358
0.181494	1.2047	-0.356608	0.0599366
0.182595	1.19511	-0.356768	0.0593448
0.183703	1.18557	-0.356923	0.0587603
0.184818	1.17621	-0.357072	0.0581833
0.185939	1.16709	-0.357216	0.0576133
0.187066	1.15817	-0.357355	0.0570501
0.188199	1.14936	-0.35749	0.0564932
0.189339	1.14055	-0.357623	0.0559424
0.190486	1.13163	-0.357756	0.0553976
0.191638	1.12281	-0.35789	0.054859
0.192797	1.11419	-0.358025	0.0543271
0.193962	1.10575	-0.358161	0.0538024
0.195132	1.09743	-0.358296	0.0532853
0.196308	1.08918	-0.358429	0.0527759
0.19749	1.08094	-0.358559	0.0522741
0.198677	1.07273	-0.358685	0.0517795
0.199869	1.06461	-0.358806	0.0512915
0.201065	1.05661	-0.358922	0.0508096
0.202267	1.04872	-0.359033	0.0503334
0.203472	1.04093	-0.359139	0.0498627
0.204681	1.03322	-0.359242	0.049397
0.205894	1.02558	-0.359345	0.048936
0.20711	1.01798	-0.359449	0.0484801
0.208329	1.01041	-0.359551	0.0480303
0.20955	1.00288	-0.359651	0.0475876
0.210773	0.995396	-0.359747	0.0471528
0.211998	0.987975	-0.359842	0.0467261
0.213223	0.980642	-0.359934	0.0463075
0.21445	0.973407	-0.360025	0.045897
0.215676	0.966303	-0.360113	0.0454939
0.216902	0.959356	-0.3602	0.0450979
0.218127	0.952579	-0.360284	0.0447084
0.219352	0.945981	-0.360367	0.0443251
0.220574	0.939562	-0.360449	0.0439474
0.221795	0.933296	-0.360531	0.0435752
0.223013	0.927135	-0.360612	0.0432087
0.224228	0.921029	-0.360691	0.0428484
0.225439	0.91496	-0.360767	0.0424947
0.226647	0.908947	-0.360839	0.0421477
0.227851	0.903017	-0.360908	0.0418074
0.229051	0.897185	-0.360973	0.0414738
0.230246	0.891447	-0.361036	0.0411467
0.231435	0.885795	-0.361097	0.0408257
0.23262	0.880225	-0.361159	0.0405104
0.233799	0.874734	-0.361221	0.0402006
0.234972	0.869324	-0.361284	0.0398964
0.236139	0.864002	-0.361349	0.0395975
0.2373	0.858779	-0.361414	0.0393045
0.238455	0.85366	-0.361478	0.0390176
0.239603	0.848646	-0.361539	0.0387368
0.240745	0.843736	-0.361597	0.038462
0.241881	0.838923	-0.361651	0.038193
0.24301	0.834189	-0.361701	0.0379292
0.244132	0.829513	-0.361748	0.0376703
0.245248	0.824891	-0.361791	0.0374158
0.246358	0.820334	-0.361831	0.0371653
0.247461	0.815854	-0.361868	0.0369186
0.248559	0.811448	-0.361904	0.0366755
0.24965	0.807104	-0.36194	0.0364357
0.250735	0.802827	-0.361976	0.0361991
0.251814	0.798628	-0.362015	0.0359656
0.252888	0.794501	-0.362056	0.0357356
0.253957	0.790427	-0.362097	0.0355093
0.255021	0.786397	-0.362138	0.0352873
0.25608	0.782412	-0.362179	0.0350697
0.257134	0.778483	-0.362218	0.0348564
0.258184	0.774619	-0.362256	0.0346474
0.25923	0.770821	-0.362293	0.0344424
0.260272	0.767085	-0.362328	0.034241
0.261311	0.763405	-0.362363	0.0340429
0.262347	0.759769	-0.362397	0.0338478
0.26338	0.756165	-0.36243	0.0336555
0.26441	0.752599	-0.362464	0.0334656
0.265439	0.749092	-0.362498	0.033278
0.266465	0.745662	-0.362532	0.0330923
0.26749	0.742296	-0.362568	0.0329085
0.268513	0.738962	-0.362603	0.0327263
0.269536	0.735621	-0.362638	0.0325457
0.270558	0.732252	-0.362671	0.0323668
0.271579	0.728905	-0.362701	0.0321894
0.2726	0.725615	-0.362727	0.0320137
0.273622	0.722374	-0.36275	0.0318395
0.274643	0.719158	-0.362769	0.0316669
0.275665	0.715947	-0.362785	0.0314958
0.276688	0.712743	-0.362798	0.0313263
0.277712	0.709566	-0.36281	0.0311583
0.278737	0.706419	-0.362822	0.0309918
0.279763	0.703295	-0.362833	0.0308269
0.28079	0.700184	-0.362846	0.0306635
0.281819	0.697085	-0.36286	0.0305019
0.282849	0.694014	-0.362878	0.030342
0.283881	0.690986	-0.362897	0.0301838
0.284915	0.688005	-0.362919	0.0300274
0.28595	0.685068	-0.362942	0.0298727
0.286987	0.682172	-0.362966	0.0297194
0.288026	0.679312	-0.362989	0.0295674
0.289066	0.676479	-0.363013	0.0294166
0.290109	0.673661	-0.363035	0.0292668
0.291153	0.67084	-0.363057	0.029118
0.292199	0.667995	-0.363078	0.0289699
0.293247	0.665132	-0.3631	0.0288225
0.294296	0.662256	-0.363123	0.0286757
0.295348	0.659381	-0.363147	0.0285295
0.296401	0.656513	-0.363174	0.0283837
0.297456	0.653658	-0.363204	0.0282384
0.298513	0.650823	-0.363238	0.0280936
0.299572	0.648013	-0.363274	0.0279494
0.300633	0.645241	-0.363308	0.0278066
0.301695	0.642512	-0.363337	0.0276655
0.30276	0.639828	-0.363363	0.0275263
0.303827	0.637185	-0.363383	0.027389
0.304896	0.634579	-0.363399	0.0272535
0.305967	0.632002	-0.363411	0.0271197
0.30704	0.629443	-0.36342	0.0269876
0.308115	0.626895	-0.363427	0.0268568
0.309194	0.624355	-0.363433	0.0267272
0.310274	0.621824	-0.363438	0.0265985
0.311358	0.6193	-0.363443	0.0264706
0.312445	0.616777	-0.363449	0.0263434
0.313534	0.614251	-0.363455	0.0262166
0.314628	0.611725	-0.363462	0.02609
0.315724	0.609204	-0.36347	0.0259637
0.316825	0.606697	-0.36348	0.0258377
0.317929	0.604216	-0.363492	0.0257119
0.319037	0.601764	-0.363507	0.0255865
0.32015	0.599333	-0.363522	0.0254618
0.321267	0.596906	-0.363538	0.0253378
0.322389	0.594447	-0.363554	0.0252146
0.323516	0.591982	-0.363569	0.0250923
0.324648	0.589557	-0.363584	0.0249708
0.325785	0.587169	-0.363598	0.0248499
0.326927	0.584802	-0.363611	0.0247295
0.328074	0.582441	-0.363623	0.0246096
0.329227	0.580061	-0.363635	0.0244901
0.330385	0.577668	-0.363646	0.024371
0.331549	0.575294	-0.363657	0.0242524
0.332718	0.572944	-0.363668	0.0241344
0.333892	0.570611	-0.363677	0.024017
0.335072	0.568287	-0.363685	0.0239003
0.336256	0.565956	-0.363693	0.0237843
0.337445	0.563606	-0.363699	0.0236691
0.338639	0.561243	-0.363707	0.0235545
0.339837	0.558875	-0.363714	0.0234407
0.341039	0.556522	-0.363723	0.0233276
0.342245	0.554196	-0.363732	0.0232152
0.343454	0.551903	-0.363743	0.0231034
0.344666	0.549644	-0.363756	0.0229922
0.34588	0.547418	-0.363769	0.0228815
0.347097	0.54522	-0.363781	0.0227715
0.348315	0.543044	-0.363791	0.0226624
0.349534	0.540883	-0.363799	0.0225541
0.350753	0.538726	-0.363805	0.0224469
0.351973	0.536573	-0.36381	0.0223407
0.353191	0.534428	-0.363814	0.0222357
0.354409	0.532298	-0.363817	0.0221318
0.355625	0.530195	-0.363821	0.0220291
0.356839	0.528124	-0.363826	0.0219277
0.358049	0.526082	-0.363832	0.0218274
0.359256	0.524061	-0.363838	0.0217282
0.36046	0.522052	-0.363845	0.02163
0.361658	0.520046	-0.363851	0.0215329
0.362852	0.518045	-0.363858	0.0214367
0.36404	0.516048	-0.363865	0.0213417
