# 3D Evrard collapse
# Equivalent 1D problem with 1000 cell co-moving grid
# t = 0.23
# radius	density	radial velocity	pressure
5.17414e-05	3885.89	-0.000106516	162.715
0.000155235	2909.17	-0.000117617	162.121
0.000258722	1957.43	-0.000281343	161.601
0.000362214	1613.76	-0.000410166	161.073
0.000465716	1409.9	-0.000539783	160.568
0.000569234	1258.52	-0.000665086	160.078
0.000672772	1141.93	-0.000787655	159.602
0.000776336	1052.41	-0.000908748	159.136
0.000879927	983.39	-0.00102916	158.679
0.000983552	928.739	-0.00114925	158.226
0.00108721	883.516	-0.0012691	157.777
0.00119091	844.327	-0.00138867	157.329
0.00129466	809.147	-0.0015079	156.882
0.00139845	776.885	-0.00162675	156.437
0.00150229	746.984	-0.00174521	155.994
0.00160619	719.186	-0.00186329	155.553
0.00171015	693.435	-0.00198101	155.116
0.00181417	669.801	-0.00209843	154.681
0.00191826	648.372	-0.00221563	154.25
0.00202242	629.137	-0.00233271	153.821
0.00212665	611.933	-0.00244978	153.395
0.00223095	596.483	-0.0025669	152.97
0.00233534	582.462	-0.00268415	152.546
0.0024398	569.541	-0.00280157	152.124
0.00254435	557.425	-0.0029192	151.702
0.00264899	545.878	-0.00303707	151.28
0.00275373	534.758	-0.00315521	150.86
0.00285855	524.022	-0.00327363	150.44
0.00296348	513.692	-0.0033924	150.021
0.0030685	503.806	-0.00351154	149.603
0.00317363	494.383	-0.00363111	149.185
0.00327887	485.413	-0.00375117	148.769
0.00338421	476.87	-0.00387175	148.354
0.00348966	468.72	-0.00399289	147.939
0.00359523	460.939	-0.00411461	147.526
0.00370091	453.52	-0.00423696	147.113
0.00380671	446.469	-0.00435997	146.701
0.00391263	439.793	-0.00448366	146.289
0.00401868	433.474	-0.00460807	145.878
0.00412484	427.443	-0.00473324	145.467
0.00423114	421.597	-0.00485919	145.057
0.00433756	415.851	-0.0049859	144.647
0.00444411	410.183	-0.00511338	144.237
0.0045508	404.629	-0.00524164	143.828
0.00465762	399.237	-0.00537067	143.42
0.00476457	394.036	-0.0055005	143.012
0.00487166	389.027	-0.00563114	142.605
0.00497889	384.188	-0.0057626	142.198
0.00508626	379.48	-0.00589487	141.791
0.00519376	374.862	-0.00602795	141.386
0.00530141	370.312	-0.00616183	140.98
0.00540921	365.854	-0.00629649	140.576
0.00551714	361.546	-0.00643192	140.172
0.00562523	357.444	-0.00656814	139.769
0.00573345	353.548	-0.00670515	139.366
0.00584183	349.804	-0.00684295	138.964
0.00595035	346.148	-0.00698152	138.561
0.00605902	342.562	-0.00712084	138.16
0.00616784	339.061	-0.0072609	137.758
0.0062768	335.656	-0.00740168	137.357
0.00638592	332.343	-0.00754318	136.957
0.00649519	329.104	-0.00768539	136.556
0.0066046	325.922	-0.00782828	136.156
0.00671417	322.779	-0.00797185	135.757
0.00682389	319.662	-0.00811607	135.358
0.00693376	316.573	-0.00826091	134.959
0.00704377	313.529	-0.00840636	134.561
0.00715394	310.543	-0.0085524	134.163
0.00726426	307.616	-0.00869902	133.766
0.00737473	304.736	-0.0088462	133.37
0.00748536	301.893	-0.00899392	132.974
0.00759613	299.088	-0.00914216	132.579
0.00770705	296.326	-0.00929089	132.184
0.00781812	293.624	-0.00944009	131.79
0.00792934	291.01	-0.00958974	131.397
0.00804071	288.512	-0.00973984	131.004
0.00815223	286.131	-0.00989037	130.612
0.00826389	283.836	-0.0100413	130.22
0.00837571	281.579	-0.0101927	129.829
0.00848767	279.327	-0.0103444	129.438
0.00859978	277.053	-0.0104965	129.048
0.00871203	274.786	-0.010649	128.658
0.00882443	272.558	-0.0108017	128.268
0.00893697	270.399	-0.0109547	127.88
0.00904966	268.321	-0.0111081	127.492
0.00916249	266.31	-0.0112617	127.104
0.00927546	264.332	-0.0114156	126.717
0.00938858	262.356	-0.0115698	126.33
0.00950184	260.336	-0.0117242	125.943
0.00961523	258.261	-0.0118788	125.558
0.00972877	256.229	-0.0120336	125.173
0.00984245	254.271	-0.0121885	124.789
0.00995626	252.393	-0.0123437	124.405
0.0100702	250.579	-0.0124991	124.022
0.0101843	248.803	-0.0126547	123.64
0.0102985	247.057	-0.0128104	123.258
0.0104129	245.338	-0.0129663	122.877
0.0105274	243.638	-0.0131224	122.496
0.010642	241.945	-0.0132786	122.116
0.0107568	240.246	-0.013435	121.736
0.0108717	238.515	-0.0135915	121.357
0.0109867	236.778	-0.0137482	120.979
0.0111019	235.081	-0.013905	120.601
0.0112172	233.441	-0.0140619	120.225
0.0113326	231.859	-0.0142189	119.848
0.0114482	230.313	-0.0143761	119.473
0.0115638	228.782	-0.0145335	119.098
0.0116796	227.263	-0.014691	118.724
0.0117956	225.77	-0.0148486	118.35
0.0119117	224.321	-0.0150063	117.978
0.0120279	222.913	-0.0151642	117.605
0.0121442	221.526	-0.0153223	117.234
0.0122607	220.141	-0.0154805	116.862
0.0123772	218.737	-0.0156389	116.492
0.012494	217.295	-0.0157974	116.122
0.0126108	215.857	-0.0159561	115.753
0.0127278	214.437	-0.016115	115.385
0.0128449	213.046	-0.016274	115.017
0.0129621	211.694	-0.0164332	114.65
0.0130794	210.387	-0.0165925	114.284
0.0131969	209.119	-0.0167521	113.919
0.0133146	207.879	-0.0169119	113.554
0.0134323	206.655	-0.0170719	113.19
0.0135502	205.437	-0.0172321	112.826
0.0136682	204.223	-0.0173925	112.464
0.0137863	203.013	-0.0175531	112.101
0.0139046	201.81	-0.017714	111.74
0.014023	200.614	-0.0178751	111.379
0.0141416	199.426	-0.0180365	111.018
0.0142603	198.241	-0.0181981	110.659
0.0143791	197.059	-0.01836	110.3
0.0144981	195.878	-0.0185222	109.941
0.0146172	194.7	-0.0186846	109.584
0.0147365	193.527	-0.0188474	109.227
0.0148559	192.369	-0.0190104	108.871
0.0149754	191.232	-0.0191738	108.515
0.0150951	190.122	-0.0193374	108.161
0.015215	189.04	-0.0195015	107.806
0.015335	187.985	-0.0196658	107.453
0.0154552	186.947	-0.0198305	107.1
0.0155755	185.918	-0.0199956	106.748
0.015696	184.9	-0.0201611	106.396
0.0158166	183.905	-0.020327	106.045
0.0159375	182.925	-0.0204932	105.694
0.0160585	181.941	-0.0206599	105.344
0.0161796	180.936	-0.0208271	104.994
0.016301	179.911	-0.0209946	104.645
0.0164225	178.889	-0.0211626	104.296
0.0165443	177.892	-0.0213311	103.949
0.0166662	176.921	-0.0215	103.601
0.0167883	175.971	-0.0216694	103.254
0.0169106	175.032	-0.0218393	102.908
0.0170331	174.098	-0.0220097	102.562
0.0171558	173.169	-0.0221806	102.217
0.0172787	172.248	-0.0223521	101.872
0.0174018	171.338	-0.022524	101.527
0.0175252	170.436	-0.0226966	101.183
0.0176488	169.536	-0.0228697	100.839
0.0177726	168.634	-0.0230433	100.496
0.0178966	167.729	-0.0232176	100.153
0.0180209	166.831	-0.0233924	99.811
0.0181454	165.944	-0.0235678	99.4691
0.0182701	165.074	-0.0237438	99.1276
0.0183952	164.217	-0.0239205	98.7864
0.0185204	163.368	-0.0240977	98.4456
0.018646	162.521	-0.0242756	98.1051
0.0187718	161.677	-0.0244541	97.765
0.0188978	160.835	-0.0246333	97.4252
0.0190242	159.994	-0.0248131	97.0857
0.0191508	159.16	-0.0249936	96.7465
0.0192778	158.341	-0.0251747	96.4077
0.019405	157.538	-0.0253565	96.0691
0.0195325	156.744	-0.025539	95.7307
0.0196603	155.951	-0.0257222	95.3926
0.0197885	155.149	-0.0259061	95.0547
0.0199169	154.34	-0.0260907	94.7171
0.0200457	153.542	-0.0262759	94.3797
0.0201748	152.76	-0.0264619	94.0425
0.0203043	151.994	-0.0266486	93.7055
0.020434	151.242	-0.0268361	93.3687
0.0205642	150.497	-0.0270242	93.032
0.0206947	149.752	-0.0272132	92.6955
0.0208255	149.0	-0.0274029	92.359
0.0209567	148.225	-0.0275933	92.0227
0.0210882	147.442	-0.0277845	91.6867
0.0212202	146.675	-0.0279764	91.3508
0.0213525	145.926	-0.0281691	91.0151
0.0214852	145.189	-0.0283626	90.6795
0.0216183	144.462	-0.0285569	90.344
0.0217518	143.74	-0.028752	90.0085
0.0218856	143.023	-0.0289479	89.6732
0.0220199	142.311	-0.0291446	89.338
0.0221546	141.604	-0.029342	89.0027
0.0222897	140.9	-0.0295404	88.6676
0.0224252	140.198	-0.0297395	88.3325
0.0225611	139.495	-0.0299395	87.9975
0.0226975	138.788	-0.0301402	87.6625
0.0228343	138.085	-0.0303419	87.3276
0.0229715	137.391	-0.0305443	86.9927
0.0231092	136.705	-0.0307476	86.6579
0.0232473	136.025	-0.0309517	86.3232
0.0233859	135.347	-0.0311568	85.9885
0.0235249	134.67	-0.0313626	85.6538
0.0236643	133.99	-0.0315694	85.3191
0.0238043	133.3	-0.031777	84.9846
0.0239446	132.603	-0.0319854	84.6502
0.0240855	131.915	-0.0321948	84.3158
0.0242268	131.24	-0.032405	83.9816
0.0243686	130.578	-0.0326161	83.6475
0.0245108	129.929	-0.0328281	83.3134
0.0246536	129.289	-0.033041	82.9793
0.0247968	128.655	-0.0332549	82.6453
0.0249405	128.023	-0.0334697	82.3113
0.0250846	127.391	-0.0336854	81.9774
0.0252293	126.757	-0.033902	81.6435
0.0253744	126.122	-0.0341196	81.3096
0.0255201	125.487	-0.0343382	80.9759
0.0256662	124.851	-0.0345578	80.6422
0.0258128	124.213	-0.0347783	80.3087
0.0259599	123.58	-0.0349999	79.9753
0.0261076	122.955	-0.0352224	79.642
0.0262557	122.341	-0.035446	79.3088
0.0264043	121.736	-0.0356706	78.9758
0.0265534	121.136	-0.0358963	78.6428
0.026703	120.539	-0.0361231	78.3098
0.0268531	119.94	-0.036351	77.977
0.0270037	119.336	-0.03658	77.6443
0.0271548	118.717	-0.0368102	77.3118
0.0273064	118.087	-0.0370414	76.9795
0.0274585	117.465	-0.0372738	76.6474
0.0276112	116.854	-0.0375074	76.3156
0.0277643	116.255	-0.0377421	75.9839
0.0279179	115.669	-0.0379781	75.6524
0.0280721	115.096	-0.0382153	75.3211
0.0282267	114.532	-0.0384538	74.9899
0.0283819	113.973	-0.0386936	74.6589
0.0285375	113.418	-0.0389347	74.328
0.0286937	112.863	-0.0391771	73.9972
0.0288503	112.304	-0.0394209	73.6665
0.0290075	111.736	-0.0396661	73.3361
0.0291652	111.152	-0.0399126	73.0059
0.0293234	110.551	-0.0401606	72.6759
0.0294821	109.948	-0.04041	72.3463
0.0296413	109.357	-0.0406609	72.0171
0.029801	108.781	-0.0409133	71.6881
0.0299613	108.223	-0.0411672	71.3594
0.030122	107.68	-0.0414227	71.031
0.0302833	107.146	-0.0416798	70.7028
0.030445	106.617	-0.0419386	70.3747
0.0306073	106.088	-0.0421991	70.0469
0.0307701	105.556	-0.0424613	69.7193
0.0309334	105.019	-0.0427253	69.3919
0.0310972	104.484	-0.042991	69.0648
0.0312615	103.95	-0.0432586	68.7379
0.0314264	103.416	-0.0435281	68.4113
0.0315917	102.882	-0.0437995	68.085
0.0317576	102.347	-0.0440729	67.7589
0.031924	101.811	-0.0443482	67.4332
0.0320909	101.277	-0.0446256	67.1078
0.0322584	100.745	-0.0449051	66.7827
0.0324263	100.217	-0.0451867	66.4579
0.0325948	99.6938	-0.0454705	66.1335
0.0327639	99.1767	-0.0457565	65.8094
0.0329334	98.6649	-0.0460448	65.4855
0.0331035	98.1573	-0.0463353	65.162
0.0332742	97.6521	-0.0466283	64.8387
0.0334454	97.1478	-0.0469235	64.5157
0.0336171	96.6433	-0.0472213	64.1931
0.0337894	96.138	-0.0475214	63.8708
0.0339622	95.6334	-0.047824	63.5487
0.0341356	95.1311	-0.0481291	63.2271
0.0343095	94.6319	-0.0484367	62.9057
0.034484	94.1351	-0.0487468	62.5847
0.0346591	93.639	-0.0490594	62.264
0.0348348	93.1431	-0.0493745	61.9436
0.035011	92.649	-0.0496921	61.6236
0.0351878	92.1595	-0.0500122	61.3039
0.0353652	91.6751	-0.0503348	60.9846
0.0355432	91.1938	-0.0506598	60.6656
0.0357218	90.7127	-0.0509872	60.3469
0.035901	90.2301	-0.0513168	60.0285
0.0360808	89.751	-0.0516487	59.7105
0.0362613	89.2793	-0.0519827	59.3929
0.0364423	88.814	-0.0523188	59.0755
0.036624	88.352	-0.0526569	58.7585
0.0368063	87.8903	-0.0529969	58.4418
0.0369893	87.4261	-0.0533387	58.1255
0.0371729	86.9551	-0.0536822	57.8095
0.0373572	86.4758	-0.0540271	57.4939
0.0375421	85.9942	-0.0543734	57.1787
0.0377278	85.5172	-0.0547209	56.864
0.0379141	85.0478	-0.0550695	56.5497
0.0381011	84.5868	-0.0554192	56.2359
0.0382888	84.1333	-0.0557697	55.9225
0.0384772	83.6843	-0.0561209	55.6095
0.0386663	83.237	-0.0564729	55.2968
0.0388561	82.7896	-0.0568253	54.9846
0.0390467	82.3396	-0.0571782	54.6729
0.039238	81.8849	-0.0575313	54.3616
0.0394301	81.4331	-0.0578848	54.0507
0.0396229	80.987	-0.0582384	53.7404
0.0398165	80.5465	-0.0585922	53.4305
0.0400109	80.1097	-0.0589461	53.1211
0.0402061	79.6742	-0.0593002	52.8121
0.040402	79.2382	-0.0596545	52.5036
0.0405988	78.7977	-0.0600091	52.1955
0.0407964	78.3474	-0.0603639	51.8879
0.0409948	77.8895	-0.060719	51.5809
0.0411941	77.4369	-0.0610745	51.2744
0.0413942	76.9925	-0.0614305	50.9684
0.0415951	76.5573	-0.0617871	50.6629
0.0417969	76.1297	-0.0621445	50.3579
0.0419996	75.7067	-0.0625027	50.0532
0.0422032	75.2854	-0.0628619	49.7489
0.0424077	74.8641	-0.0632222	49.445
0.0426131	74.4401	-0.0635838	49.1415
0.0428194	74.0132	-0.0639468	48.8384
0.0430266	73.589	-0.0643112	48.5356
0.0432347	73.1677	-0.0646774	48.2332
0.0434438	72.7489	-0.0650454	47.9312
0.0436539	72.3315	-0.0654154	47.6295
0.0438649	71.9147	-0.0657874	47.328
0.0440769	71.4976	-0.0661617	47.027
0.0442899	71.0787	-0.0665384	46.7262
0.0445039	70.6558	-0.0669176	46.4257
0.0447189	70.2307	-0.0672993	46.1256
0.0449349	69.8085	-0.0676837	45.8258
0.0451519	69.3899	-0.0680709	45.5263
0.0453699	68.9751	-0.068461	45.2272
0.045589	68.5632	-0.0688541	44.9283
0.0458092	68.1534	-0.0692504	44.6297
0.0460304	67.7449	-0.0696499	44.3315
0.0462527	67.3372	-0.0700527	44.0335
0.046476	66.9298	-0.0704589	43.7358
0.0467005	66.5225	-0.0708686	43.4383
0.046926	66.1146	-0.071282	43.1412
0.0471527	65.7047	-0.0716991	42.8444
0.0473805	65.2911	-0.0721199	42.5479
0.0476094	64.8735	-0.0725447	42.2518
0.0478394	64.456	-0.0729734	41.9561
0.0480705	64.0416	-0.0734063	41.6607
0.0483029	63.6311	-0.0738434	41.3657
0.0485363	63.2245	-0.0742848	41.0711
0.0487709	62.8213	-0.0747306	40.7768
0.0490067	62.4201	-0.0751809	40.4829
0.0492437	62.02	-0.0756359	40.1893
0.0494818	61.6203	-0.0760955	39.8961
0.0497212	61.2205	-0.0765599	39.6033
0.0499617	60.8204	-0.0770291	39.3108
0.0502034	60.4195	-0.0775033	39.0187
0.0504463	60.0177	-0.0779825	38.7271
0.0506905	59.6141	-0.0784669	38.4359
0.0509358	59.2082	-0.0789565	38.1451
0.0511824	58.7998	-0.0794513	37.8548
0.0514302	58.3919	-0.0799516	37.5651
0.0516792	57.9855	-0.0804573	37.2758
0.0519295	57.581	-0.0809686	36.9871
0.052181	57.1785	-0.0814857	36.699
0.0524337	56.7782	-0.0820085	36.4113
0.0526877	56.3802	-0.0825373	36.1243
0.052943	55.9846	-0.083072	35.8378
0.0531995	55.5918	-0.0836129	35.5519
0.0534572	55.2018	-0.08416	35.2667
0.0537162	54.8138	-0.0847135	34.982
0.0539765	54.4268	-0.0852736	34.6979
0.054238	54.0396	-0.0858404	34.4145
0.0545008	53.6491	-0.0864143	34.1318
0.0547648	53.2475	-0.0869953	33.8498
0.0550301	52.8214	-0.0875838	33.5687
0.0552967	52.3552	-0.0881799	33.2886
0.0555645	51.8362	-0.0887833	33.01
0.0558336	51.2625	-0.0893938	32.733
0.056104	50.6678	-0.0900111	32.4579
0.0563756	50.0914	-0.0906357	32.1848
0.0566485	49.5337	-0.0912676	31.9136
0.0569227	48.9972	-0.0919068	31.6442
0.0571981	48.4837	-0.092553	31.3766
0.0574748	47.9929	-0.0932064	31.1106
0.0577528	47.5227	-0.0938668	30.8462
0.058032	47.0697	-0.0945343	30.5833
0.0583124	46.6299	-0.0952087	30.3217
0.0585942	46.1997	-0.0958902	30.0616
0.0588771	45.7764	-0.0965787	29.8028
0.0591614	45.3581	-0.0972742	29.5454
0.0594468	44.9441	-0.0979767	29.2893
0.0597336	44.5342	-0.0986862	29.0346
0.0600215	44.1291	-0.0994028	28.7813
0.0603107	43.7289	-0.100127	28.5293
0.0606012	43.3334	-0.100858	28.2787
0.0608928	42.942	-0.101596	28.0294
0.0611857	42.5538	-0.102342	27.7815
0.0614799	42.168	-0.103096	27.5349
0.0617752	41.7839	-0.103858	27.2898
0.0620718	41.4008	-0.104628	27.046
0.0623696	41.0188	-0.105406	26.8037
0.0626686	40.6378	-0.106192	26.5628
0.0629688	40.258	-0.106987	26.3234
0.0632702	39.8799	-0.107791	26.0854
0.0635728	39.5041	-0.108602	25.8489
0.0638766	39.1314	-0.109421	25.6138
0.0641816	38.7625	-0.110248	25.3801
0.0644878	38.3981	-0.111083	25.1478
0.0647951	38.0386	-0.111925	24.917
0.0651037	37.6846	-0.112775	24.6875
0.0654134	37.3363	-0.113633	24.4594
0.0657244	36.9929	-0.114499	24.2327
0.0660365	36.6528	-0.115374	24.0073
0.0663497	36.3146	-0.116258	23.7834
0.0666642	35.978	-0.117152	23.5609
0.0669798	35.643	-0.118057	23.3399
0.0672965	35.31	-0.118973	23.1204
0.0676144	34.9791	-0.1199	22.9023
0.0679335	34.6507	-0.120837	22.6858
0.0682538	34.3247	-0.121785	22.4707
0.0685752	34.0011	-0.122743	22.257
0.0688977	33.6798	-0.12371	22.0448
0.0692214	33.3607	-0.124687	21.834
0.0695463	33.0439	-0.125672	21.6246
0.0698723	32.7298	-0.126666	21.4166
0.0701995	32.4185	-0.127671	21.2101
0.0705278	32.1102	-0.128686	21.005
0.0708573	31.8048	-0.129713	20.8014
0.0711879	31.5025	-0.130752	20.5993
0.0715197	31.2031	-0.131803	20.3987
0.0718526	30.9059	-0.132867	20.1996
0.0721867	30.6106	-0.133943	20.0019
0.072522	30.3171	-0.13503	19.8056
0.0728584	30.026	-0.136128	19.6108
0.0731961	29.7377	-0.137237	19.4173
0.0735348	29.4521	-0.138356	19.2251
0.0738748	29.1693	-0.139487	19.0343
0.074216	28.8893	-0.140629	18.8449
0.0745583	28.6122	-0.141785	18.6569
0.0749018	28.338	-0.142955	18.4703
0.0752466	28.0665	-0.144139	18.285
0.0755925	27.7974	-0.145338	18.1011
0.0759397	27.53	-0.146552	17.9186
0.076288	27.2642	-0.14778	17.7373
0.0766376	27.0	-0.14902	17.5573
0.0769885	26.7381	-0.150272	17.3786
0.0773406	26.4785	-0.151538	17.2011
0.077694	26.2213	-0.152816	17.0248
0.0780486	25.9662	-0.154109	16.8497
0.0784045	25.7129	-0.155418	16.676
0.0787617	25.4615	-0.156744	16.5035
0.0791202	25.2125	-0.158087	16.3323
0.0794801	24.9667	-0.159447	16.1623
0.0798412	24.7241	-0.160822	15.9935
0.0802037	24.484	-0.162212	15.8259
0.0805676	24.2454	-0.163617	15.6593
0.0809328	24.0077	-0.165037	15.4939
0.0812994	23.7714	-0.166472	15.3296
0.0816674	23.5372	-0.167925	15.1665
0.0820368	23.3054	-0.169397	15.0045
0.0824076	23.0756	-0.170888	14.8437
0.0827799	22.8472	-0.172398	14.684
0.0831536	22.6205	-0.173926	14.5254
0.0835288	22.3958	-0.175471	14.3678
0.0839055	22.1731	-0.177034	14.2113
0.0842837	21.952	-0.178615	14.0557
0.0846634	21.732	-0.180216	13.9012
0.0850446	21.5132	-0.18184	13.7478
0.0854274	21.2963	-0.183488	13.5954
0.0858118	21.0822	-0.185162	13.4441
0.0861978	20.8702	-0.186859	13.2939
0.0865854	20.66	-0.188578	13.1446
0.0869746	20.4516	-0.190316	12.9961
0.0873654	20.2453	-0.192076	12.8486
0.0877579	20.0416	-0.193859	12.7019
0.0881521	19.8392	-0.195669	12.5563
0.088548	19.6367	-0.197508	12.4116
0.0889456	19.435	-0.199377	12.2679
0.089345	19.2356	-0.201272	12.1252
0.0897461	19.0364	-0.203193	11.9833
0.090149	18.8376	-0.205137	11.8422
0.0905536	18.6408	-0.207107	11.702
0.0909601	18.4459	-0.209104	11.5626
0.0913684	18.2522	-0.211134	11.4241
0.0917786	18.0605	-0.2132	11.2866
0.0921906	17.8708	-0.215303	11.15
0.0926046	17.6826	-0.217441	11.0143
0.0930204	17.4961	-0.219612	10.8794
0.0934382	17.311	-0.22181	10.7451
0.0938579	17.1278	-0.224037	10.6114
0.0942796	16.9441	-0.226301	10.4784
0.0947032	16.7631	-0.228611	10.3463
0.0951289	16.5829	-0.230975	10.2152
0.0955566	16.4022	-0.233395	10.085
0.0959864	16.2263	-0.235858	9.95563
0.0964182	16.0461	-0.238338	9.82649
0.0968521	15.8711	-0.240839	9.6975
0.0972882	15.6934	-0.243405	9.56941
0.0977264	15.5196	-0.246034	9.44247
0.0981667	15.3458	-0.248686	9.31565
0.0986093	15.1723	-0.251427	9.18959
0.0990541	15.0054	-0.254346	9.06626
0.0995011	14.8322	-0.257218	8.94059
0.0999504	14.6619	-0.259727	8.81125
0.100402	14.4883	-0.263041	8.68561
0.100855	14.3056	-0.272895	8.54365
0.101312	13.2957	-0.325295	7.59025
0.101783	7.79844	-0.815115	3.14895
0.102357	4.72382	-1.28959	0.801698
0.103088	4.67127	-1.28577	0.787516
0.103945	4.61198	-1.28206	0.771736
0.104902	4.54689	-1.27794	0.754559
0.105939	4.47796	-1.27355	0.736553
0.107039	4.40654	-1.26898	0.718105
0.10819	4.33371	-1.26429	0.699524
0.10938	4.26045	-1.25952	0.681023
0.110602	4.18738	-1.25472	0.66276
0.111848	4.115	-1.2499	0.644848
0.113113	4.04364	-1.24511	0.627364
0.114393	3.97351	-1.24034	0.610367
0.115684	3.90475	-1.23562	0.593892
0.116983	3.83742	-1.23096	0.577958
0.118287	3.77154	-1.22636	0.562572
0.119596	3.7072	-1.22183	0.54773
0.120907	3.64448	-1.21736	0.533425
0.122219	3.58344	-1.21298	0.519643
0.123531	3.52412	-1.20867	0.50637
0.124843	3.46654	-1.20444	0.49359
0.126154	3.41069	-1.20028	0.481289
0.127463	3.35652	-1.1962	0.469449
0.128771	3.30398	-1.19219	0.458052
0.130076	3.25299	-1.18825	0.447082
0.131379	3.20346	-1.18438	0.436518
0.132678	3.15529	-1.18058	0.426343
0.133975	3.10839	-1.17685	0.416539
0.135269	3.06271	-1.17319	0.407088
0.13656	3.0182	-1.1696	0.397973
0.137848	2.97484	-1.16607	0.389177
0.139132	2.93263	-1.16261	0.380685
0.140413	2.89157	-1.15921	0.372483
0.141691	2.8516	-1.15588	0.364559
0.142965	2.81269	-1.1526	0.3569
0.144236	2.77475	-1.14938	0.349497
0.145503	2.73774	-1.14622	0.34234
0.146767	2.7016	-1.14311	0.335419
0.148028	2.66629	-1.14004	0.328724
0.149285	2.63181	-1.13703	0.322247
0.150538	2.5981	-1.13406	0.315978
0.151789	2.56517	-1.13114	0.309907
0.153035	2.53305	-1.12827	0.304025
