# 3D Evrard collapse
# Equivalent 1D problem with 1000 cell co-moving grid
# t = 0.24
# radius	density	radial velocity	pressure
5.03207e-05	4290.04	-0.000101595	191.899
0.000150973	3276.67	-9.52006e-05	191.198
0.000251617	2175.34	-0.000241029	190.578
0.000352266	1784.42	-0.000359146	189.959
0.000452922	1557.11	-0.000473561	189.372
0.000553593	1389.13	-0.000583994	188.805
0.00065428	1260.04	-0.000691847	188.253
0.000754988	1161.08	-0.000798323	187.716
0.00085572	1084.86	-0.0009042	187.188
0.00095648	1024.52	-0.00100984	186.666
0.00105727	974.596	-0.00111531	186.148
0.00115809	931.316	-0.00122058	185.631
0.00125896	892.455	-0.00132558	185.117
0.00135986	856.816	-0.00143027	184.604
0.0014608	823.789	-0.00153466	184.095
0.00156179	793.098	-0.00163877	183.588
0.00166283	764.686	-0.00174261	183.085
0.00176393	738.638	-0.00184626	182.586
0.00186507	715.046	-0.00194979	182.09
0.00196628	693.889	-0.0020533	181.598
0.00206755	674.976	-0.00215688	181.108
0.00216888	657.992	-0.0022606	180.621
0.00227028	642.571	-0.00236451	180.135
0.00237174	628.351	-0.00246865	179.651
0.00247328	615.003	-0.00257304	179.167
0.00257489	602.271	-0.00267769	178.685
0.00267658	590.008	-0.00278261	178.203
0.00277835	578.174	-0.00288779	177.723
0.00288021	566.796	-0.00299327	177.243
0.00298214	555.916	-0.00309906	176.765
0.00308417	545.55	-0.00320519	176.289
0.00318628	535.687	-0.0033117	175.813
0.00328848	526.293	-0.00341859	175.339
0.00339078	517.332	-0.00352589	174.866
0.00349317	508.78	-0.0036336	174.394
0.00359566	500.632	-0.00374173	173.923
0.00369825	492.895	-0.00385028	173.453
0.00380095	485.576	-0.00395928	172.984
0.00390375	478.645	-0.00406874	172.516
0.00400665	472.02	-0.00417866	172.048
0.00410966	465.587	-0.00428903	171.58
0.00421278	459.258	-0.00439984	171.114
0.00431601	453.021	-0.00451104	170.647
0.00441935	446.917	-0.00462264	170.182
0.00452281	440.999	-0.00473462	169.717
0.00462638	435.295	-0.00484697	169.253
0.00473008	429.801	-0.00495969	168.79
0.00483388	424.491	-0.00507277	168.327
0.00493781	419.318	-0.00518619	167.865
0.00504186	414.239	-0.00529993	167.404
0.00514604	409.237	-0.00541396	166.944
0.00525033	404.345	-0.00552825	166.484
0.00535476	399.633	-0.0056428	166.025
0.0054593	395.151	-0.00575759	165.566
0.00556398	390.89	-0.00587264	165.108
0.00566878	386.784	-0.00598793	164.651
0.00577371	382.771	-0.00610344	164.194
0.00587876	378.838	-0.00621914	163.737
0.00598395	375.002	-0.00633503	163.281
0.00608927	371.273	-0.0064511	162.825
0.00619472	367.642	-0.00656734	162.369
0.0063003	364.09	-0.00668377	161.914
0.00640601	360.599	-0.00680035	161.459
0.00651186	357.147	-0.0069171	161.005
0.00661784	353.723	-0.00703401	160.551
0.00672395	350.333	-0.00715106	160.097
0.0068302	346.995	-0.00726827	159.644
0.00693658	343.723	-0.00738565	159.192
0.0070431	340.513	-0.00750319	158.74
0.00714975	337.352	-0.0076209	158.289
0.00725653	334.232	-0.00773879	157.838
0.00736345	331.154	-0.00785687	157.388
0.0074705	328.126	-0.00797513	156.939
0.00757769	325.167	-0.00809359	156.49
0.00768501	322.312	-0.00821225	156.043
0.00779247	319.586	-0.00833114	155.596
0.00790006	316.986	-0.00845028	155.149
0.00800779	314.474	-0.00856968	154.703
0.00811565	311.997	-0.00868935	154.257
0.00822364	309.523	-0.00880929	153.812
0.00833177	307.024	-0.0089295	153.367
0.00844003	304.537	-0.00904997	152.923
0.00854843	302.1	-0.00917072	152.48
0.00865696	299.741	-0.00929177	152.037
0.00876562	297.47	-0.00941311	151.594
0.00887441	295.27	-0.00953478	151.153
0.00898333	293.099	-0.00965676	150.711
0.00909239	290.928	-0.00977908	150.271
0.00920158	288.702	-0.0099017	149.831
0.0093109	286.425	-0.0100246	149.391
0.00942035	284.202	-0.0101478	148.953
0.00952993	282.062	-0.0102713	148.515
0.00963964	280.011	-0.0103951	148.078
0.00974949	278.025	-0.0105192	147.641
0.00985946	276.081	-0.0106436	147.206
0.00996956	274.168	-0.0107683	146.771
0.0100798	272.285	-0.0108934	146.336
0.0101901	270.422	-0.0110186	145.902
0.0103006	268.564	-0.0111442	145.469
0.0104112	266.698	-0.0112701	145.036
0.010522	264.793	-0.0113962	144.604
0.0106329	262.89	-0.0115225	144.173
0.0107439	261.033	-0.0116491	143.742
0.010855	259.24	-0.0117759	143.313
0.0109662	257.509	-0.0119029	142.884
0.0110776	255.814	-0.0120302	142.456
0.0111891	254.135	-0.0121577	142.029
0.0113008	252.47	-0.0122854	141.602
0.0114125	250.836	-0.0124133	141.176
0.0115244	249.252	-0.0125414	140.751
0.0116364	247.71	-0.0126697	140.326
0.0117486	246.189	-0.0127982	139.902
0.0118608	244.668	-0.0129269	139.478
0.0119733	243.124	-0.0130558	139.055
0.0120858	241.539	-0.0131849	138.633
0.0121984	239.961	-0.0133141	138.212
0.0123112	238.403	-0.0134436	137.791
0.0124242	236.879	-0.0135732	137.372
0.0125372	235.399	-0.0137029	136.953
0.0126504	233.968	-0.0138329	136.534
0.0127637	232.579	-0.0139631	136.117
0.0128772	231.22	-0.0140934	135.7
0.0129908	229.877	-0.014224	135.283
0.0131045	228.54	-0.0143547	134.867
0.0132183	227.207	-0.0144856	134.452
0.0133323	225.878	-0.0146168	134.037
0.0134465	224.557	-0.0147482	133.623
0.0135607	223.244	-0.0148797	133.21
0.0136752	221.938	-0.0150115	132.797
0.0137897	220.635	-0.0151436	132.385
0.0139044	219.335	-0.0152758	131.974
0.0140193	218.036	-0.0154083	131.563
0.0141343	216.74	-0.0155411	131.153
0.0142494	215.451	-0.015674	130.744
0.0143647	214.178	-0.0158073	130.335
0.0144802	212.93	-0.0159408	129.927
0.0145958	211.712	-0.0160746	129.52
0.0147116	210.525	-0.0162086	129.113
0.0148275	209.367	-0.016343	128.707
0.0149436	208.225	-0.0164777	128.302
0.0150599	207.093	-0.0166126	127.897
0.0151763	205.977	-0.0167479	127.492
0.0152929	204.884	-0.0168835	127.088
0.0154097	203.805	-0.0170194	126.685
0.0155267	202.719	-0.0171556	126.282
0.0156438	201.609	-0.0172922	125.879
0.0157611	200.475	-0.0174291	125.477
0.0158786	199.353	-0.0175664	125.076
0.0159963	198.258	-0.017704	124.675
0.0161142	197.193	-0.017842	124.274
0.0162323	196.148	-0.0179803	123.874
0.0163506	195.113	-0.018119	123.475
0.0164691	194.084	-0.0182581	123.076
0.0165877	193.061	-0.0183976	122.677
0.0167066	192.048	-0.0185375	122.279
0.0168258	191.046	-0.0186778	121.881
0.0169451	190.051	-0.0188184	121.484
0.0170646	189.058	-0.0189596	121.087
0.0171844	188.061	-0.0191011	120.691
0.0173044	187.063	-0.019243	120.294
0.0174247	186.074	-0.0193854	119.899
0.0175452	185.1	-0.0195282	119.503
0.0176659	184.143	-0.0196715	119.108
0.0177868	183.2	-0.0198153	118.714
0.0179081	182.263	-0.0199595	118.319
0.0180295	181.329	-0.0201042	117.926
0.0181513	180.398	-0.0202494	117.532
0.0182733	179.467	-0.0203952	117.139
0.0183955	178.54	-0.0205414	116.746
0.0185181	177.623	-0.0206882	116.353
0.0186409	176.724	-0.0208355	115.96
0.018764	175.842	-0.0209833	115.568
0.0188874	174.966	-0.0211317	115.176
0.019011	174.089	-0.0212808	114.785
0.019135	173.199	-0.0214304	114.393
0.0192593	172.308	-0.0215806	114.002
0.0193838	171.433	-0.0217314	113.611
0.0195087	170.576	-0.0218829	113.221
0.0196339	169.737	-0.022035	112.83
0.0197594	168.91	-0.0221878	112.44
0.0198852	168.088	-0.0223413	112.05
0.0200114	167.265	-0.0224956	111.66
0.0201379	166.429	-0.0226505	111.27
0.0202647	165.566	-0.0228062	110.881
0.0203918	164.708	-0.0229626	110.492
0.0205194	163.869	-0.0231197	110.103
0.0206472	163.048	-0.0232777	109.714
0.0207754	162.24	-0.0234365	109.325
0.020904	161.441	-0.023596	108.937
0.0210329	160.647	-0.0237564	108.549
0.0211622	159.86	-0.0239176	108.161
0.0212918	159.078	-0.0240797	107.773
0.0214219	158.301	-0.0242427	107.385
0.0215523	157.527	-0.0244065	106.997
0.021683	156.754	-0.0245712	106.61
0.0218142	155.978	-0.0247367	106.222
0.0219458	155.202	-0.0249032	105.835
0.0220777	154.432	-0.0250705	105.448
0.02221	153.673	-0.0252387	105.061
0.0223428	152.922	-0.0254079	104.674
0.0224759	152.176	-0.0255779	104.288
0.0226095	151.431	-0.0257488	103.901
0.0227434	150.686	-0.0259206	103.515
0.0228778	149.935	-0.0260933	103.128
0.0230126	149.171	-0.0262668	102.742
0.0231478	148.409	-0.0264412	102.356
0.0232834	147.659	-0.0266165	101.971
0.0234194	146.924	-0.0267926	101.585
0.0235559	146.204	-0.0269695	101.199
0.0236928	145.497	-0.0271473	100.814
0.0238301	144.799	-0.0273259	100.429
0.0239678	144.105	-0.0275054	100.044
0.024106	143.412	-0.0276856	99.6584
0.0242447	142.719	-0.0278667	99.2733
0.0243837	142.024	-0.0280486	98.8883
0.0245232	141.327	-0.0282312	98.5034
0.0246632	140.631	-0.0284147	98.1186
0.0248036	139.932	-0.0285989	97.734
0.0249444	139.235	-0.0287839	97.3495
0.0250857	138.545	-0.0289697	96.9651
0.0252275	137.866	-0.0291562	96.5808
0.0253697	137.198	-0.0293435	96.1966
0.0255123	136.539	-0.0295316	95.8126
0.0256554	135.884	-0.0297205	95.4286
0.025799	135.229	-0.0299102	95.0447
0.025943	134.572	-0.0301006	94.6609
0.0260875	133.904	-0.0302919	94.2772
0.0262325	133.219	-0.0304839	93.8938
0.0263779	132.531	-0.0306766	93.5106
0.0265238	131.855	-0.0308702	93.1276
0.0266701	131.191	-0.0310646	92.7448
0.0268169	130.542	-0.0312598	92.3622
0.0269642	129.907	-0.0314558	91.9799
0.0271119	129.285	-0.0316526	91.5976
0.0272602	128.671	-0.0318502	91.2155
0.0274088	128.063	-0.0320487	90.8335
0.027558	127.455	-0.032248	90.4516
0.0277076	126.847	-0.0324481	90.0699
0.0278577	126.233	-0.0326491	89.6883
0.0280083	125.605	-0.0328509	89.307
0.0281594	124.957	-0.0330535	88.9259
0.0283109	124.294	-0.0332569	88.5451
0.0284629	123.638	-0.033461	88.1647
0.0286154	122.998	-0.033666	87.7847
0.0287684	122.376	-0.0338716	87.4049
0.0289218	121.773	-0.0340781	87.0255
0.0290758	121.184	-0.0342853	86.6462
0.0292302	120.603	-0.0344932	86.2672
0.0293851	120.025	-0.0347018	85.8884
0.0295405	119.445	-0.0349112	85.5097
0.0296964	118.862	-0.0351212	85.1313
0.0298528	118.275	-0.0353319	84.7531
0.0300097	117.69	-0.0355432	84.3752
0.030167	117.106	-0.0357552	83.9975
0.0303249	116.522	-0.0359679	83.6201
0.0304832	115.937	-0.0361813	83.2431
0.0306421	115.351	-0.0363954	82.8663
0.0308015	114.765	-0.0366101	82.4898
0.0309613	114.181	-0.0368256	82.1137
0.0311217	113.6	-0.0370419	81.7379
0.0312826	113.024	-0.037259	81.3624
0.031444	112.455	-0.0374769	80.9873
0.0316059	111.891	-0.0376958	80.6125
0.0317683	111.334	-0.0379155	80.238
0.0319312	110.78	-0.0381363	79.8638
0.0320947	110.228	-0.0383581	79.4899
0.0322587	109.676	-0.038581	79.1164
0.0324232	109.123	-0.0388051	78.7432
0.0325883	108.57	-0.0390303	78.3704
0.0327538	108.019	-0.0392567	77.9979
0.03292	107.471	-0.0394844	77.6257
0.0330866	106.926	-0.0397134	77.254
0.0332539	106.382	-0.0399437	76.8826
0.0334216	105.839	-0.0401754	76.5115
0.0335899	105.297	-0.0404085	76.1408
0.0337588	104.759	-0.0406429	75.7704
0.0339283	104.226	-0.0408788	75.4004
0.0340983	103.698	-0.0411161	75.0308
0.0342689	103.171	-0.0413549	74.6614
0.0344401	102.643	-0.0415952	74.2924
0.0346118	102.116	-0.0418369	73.9237
0.0347842	101.596	-0.0420802	73.5554
0.0349571	101.084	-0.0423251	73.1873
0.0351306	100.577	-0.0425716	72.8195
0.0353048	100.071	-0.0428198	72.452
0.0354796	99.5653	-0.0430696	72.0848
0.0356549	99.0541	-0.0433213	71.7179
0.0358309	98.5335	-0.0435747	71.3513
0.0360076	98.0044	-0.0438299	70.985
0.0361849	97.4784	-0.0440869	70.6192
0.0363628	96.9595	-0.0443459	70.2537
0.0365413	96.45	-0.0446068	69.8886
0.0367206	95.9494	-0.0448697	69.5238
0.0369004	95.4552	-0.0451347	69.1593
0.037081	94.964	-0.0454017	68.795
0.0372622	94.4735	-0.0456707	68.4311
0.0374442	93.9816	-0.0459419	68.0674
0.0376268	93.4843	-0.0462151	67.704
0.0378101	92.9861	-0.0464904	67.3409
0.0379941	92.4935	-0.0467678	66.9781
0.0381789	92.0073	-0.0470473	66.6156
0.0383643	91.5258	-0.0473289	66.2534
0.0385505	91.0465	-0.0476127	65.8914
0.0387375	90.5674	-0.0478986	65.5297
0.0389251	90.0855	-0.0481867	65.1683
0.0391136	89.5949	-0.0484771	64.8071
0.0393028	89.0914	-0.0487695	64.4463
0.0394927	88.5889	-0.0490642	64.0859
0.0396835	88.0952	-0.0493611	63.7258
0.039875	87.6116	-0.0496603	63.3661
0.0400673	87.1373	-0.0499618	63.0067
0.0402604	86.6692	-0.0502657	62.6475
0.0404544	86.2039	-0.0505719	62.2886
0.0406491	85.7391	-0.0508804	61.93
0.0408447	85.2729	-0.0511912	61.5716
0.0410411	84.8023	-0.0515043	61.2135
0.0412384	84.3328	-0.0518197	60.8558
0.0414365	83.8666	-0.0521375	60.4983
0.0416355	83.4034	-0.0524575	60.141
0.0418353	82.9421	-0.0527798	59.7841
0.042036	82.4815	-0.0531044	59.4275
0.0422376	82.021	-0.0534313	59.0711
0.0424401	81.5593	-0.0537605	58.715
0.0426435	81.0937	-0.054092	58.3593
0.0428478	80.6239	-0.0544259	58.0038
0.043053	80.1562	-0.0547621	57.6488
0.0432592	79.6926	-0.0551007	57.2941
0.0434662	79.2332	-0.0554416	56.9398
0.0436742	78.7775	-0.055785	56.5858
0.0438832	78.3245	-0.0561309	56.2321
0.0440931	77.8733	-0.0564792	55.8788
0.0443039	77.4232	-0.0568299	55.5258
0.0445157	76.9737	-0.0571831	55.1732
0.0447285	76.5243	-0.0575388	54.8209
0.0449423	76.0746	-0.057897	54.4691
0.0451571	75.6234	-0.0582576	54.1176
0.0453728	75.1685	-0.0586208	53.7665
0.0455896	74.7087	-0.0589864	53.4158
0.0458073	74.2473	-0.0593546	53.0656
0.0460261	73.7891	-0.0597252	52.716
0.0462458	73.3354	-0.0600985	52.3667
0.0464666	72.8862	-0.0604743	52.018
0.0466885	72.4411	-0.0608528	51.6697
0.0469113	71.9988	-0.0612339	51.3219
0.0471352	71.5581	-0.0616177	50.9746
0.0473601	71.1181	-0.0620043	50.6278
0.0475861	70.6783	-0.0623937	50.2814
0.0478131	70.2383	-0.0627858	49.9356
0.0480412	69.7977	-0.0631809	49.5903
0.0482704	69.3561	-0.0635789	49.2455
0.0485006	68.913	-0.0639799	48.9013
0.0487318	68.4674	-0.064384	48.5578
0.0489642	68.0189	-0.0647911	48.2149
0.0491976	67.5699	-0.0652014	47.8727
0.0494321	67.1226	-0.0656149	47.5311
0.0496677	66.6775	-0.0660317	47.1903
0.0499043	66.2347	-0.0664518	46.8502
0.050142	65.7945	-0.0668752	46.5109
0.0503809	65.357	-0.067302	46.1722
0.0506208	64.9223	-0.0677322	45.8343
0.0508618	64.4909	-0.0681659	45.4972
0.0511039	64.0628	-0.0686029	45.1608
0.0513471	63.6372	-0.0690435	44.8252
0.0515913	63.213	-0.0694876	44.4903
0.0518367	62.7889	-0.0699354	44.1562
0.0520832	62.3625	-0.0703868	43.823
0.0523307	61.9268	-0.0708419	43.4906
0.0525794	61.4687	-0.071301	43.1592
0.0528291	60.9709	-0.071764	42.829
0.05308	60.4169	-0.0722308	42.5002
0.0533319	59.7986	-0.0727011	42.1733
0.053585	59.1324	-0.0731745	41.8485
0.0538391	58.48	-0.0736515	41.5261
0.0540944	57.8501	-0.0741322	41.206
0.0543507	57.2437	-0.0746168	40.888
0.0546081	56.6631	-0.0751052	40.5721
0.0548666	56.1089	-0.0755974	40.2582
0.0551262	55.5792	-0.0760937	39.9463
0.0553869	55.0705	-0.0765939	39.6361
0.0556487	54.5785	-0.0770982	39.3276
0.0559115	54.0988	-0.0776065	39.0209
0.0561754	53.628	-0.0781188	38.7158
0.0564404	53.1637	-0.0786353	38.4123
0.0567065	52.7045	-0.0791559	38.1104
0.0569737	52.2501	-0.0796808	37.8102
0.0572419	51.8008	-0.0802099	37.5117
0.0575112	51.3572	-0.0807435	37.2147
0.0577816	50.919	-0.0812815	36.9194
0.058053	50.4857	-0.081824	36.6257
0.0583255	50.0564	-0.0823711	36.3337
0.058599	49.63	-0.0829229	36.0432
0.0588736	49.2058	-0.0834792	35.7543
0.0591492	48.7828	-0.0840402	35.4671
0.0594259	48.3609	-0.0846058	35.1815
0.0597036	47.9399	-0.0851762	34.8975
0.0599823	47.52	-0.0857514	34.6152
0.0602621	47.1017	-0.0863315	34.3345
0.0605429	46.6854	-0.0869167	34.0555
0.0608248	46.2722	-0.087507	33.7782
0.0611076	45.8629	-0.0881027	33.5025
0.0613915	45.4582	-0.0887038	33.2285
0.0616764	45.0589	-0.0893105	32.9561
0.0619624	44.6657	-0.089923	32.6853
0.0622493	44.2789	-0.0905414	32.4162
0.0625373	43.8981	-0.0911661	32.1486
0.0628262	43.5217	-0.0917972	31.8825
0.0631162	43.148	-0.0924349	31.6181
0.0634071	42.776	-0.0930796	31.3552
0.0636991	42.4057	-0.0937314	31.0939
0.0639921	42.0371	-0.0943903	30.8342
0.064286	41.6707	-0.0950566	30.5762
0.064581	41.3067	-0.0957303	30.3197
0.0648769	40.9453	-0.0964112	30.0649
0.0651739	40.5865	-0.0970995	29.8117
0.0654718	40.2302	-0.0977951	29.5601
0.0657707	39.8762	-0.0984977	29.3102
0.0660706	39.5249	-0.0992073	29.062
0.0663715	39.1763	-0.0999234	28.8155
0.0666734	38.8307	-0.100646	28.5707
0.0669762	38.4884	-0.101374	28.3277
0.0672801	38.1494	-0.102107	28.0863
0.0675849	37.8138	-0.102844	27.8467
0.0678907	37.4815	-0.103585	27.6088
0.0681975	37.152	-0.104329	27.3726
0.0685052	36.8247	-0.105075	27.1382
0.068814	36.4994	-0.105824	26.9056
0.0691237	36.1766	-0.106574	26.6748
0.0694344	35.8568	-0.107326	26.4458
0.0697461	35.5402	-0.108079	26.2186
0.0700587	35.2269	-0.108833	25.9932
0.0703724	34.9169	-0.109587	25.7696
0.070687	34.6103	-0.110341	25.5477
0.0710026	34.3071	-0.111097	25.3276
0.0713191	34.0071	-0.111853	25.1093
0.0716367	33.71	-0.11261	24.8927
0.0719553	33.4152	-0.113368	24.6777
0.0722748	33.1222	-0.114129	24.4645
0.0725953	32.8312	-0.114893	24.253
0.0729168	32.5425	-0.115661	24.0431
0.0732393	32.2566	-0.116431	23.8349
0.0735628	31.9734	-0.117206	23.6282
0.0738873	31.6928	-0.117985	23.4231
0.0742128	31.4144	-0.118767	23.2196
0.0745393	31.1379	-0.119554	23.0175
0.0748668	30.864	-0.120347	22.817
0.0751953	30.5934	-0.121145	22.6179
0.0755248	30.3265	-0.12195	22.4203
0.0758554	30.0629	-0.122763	22.2242
0.076187	29.8016	-0.123583	22.0295
0.0765196	29.5416	-0.12441	21.8362
0.0768533	29.2829	-0.125244	21.6442
0.077188	29.0261	-0.126085	21.4536
0.0775237	28.772	-0.126932	21.2643
0.0778605	28.5202	-0.127786	21.0763
0.0781984	28.2703	-0.128647	20.8895
0.0785374	28.0221	-0.129516	20.704
0.0788774	27.7761	-0.130395	20.5198
0.0792185	27.5325	-0.131283	20.3369
0.0795607	27.291	-0.132181	20.1553
0.079904	27.0509	-0.13309	19.9749
0.0802484	26.812	-0.134008	19.7958
0.0805939	26.575	-0.134935	19.6178
0.0809405	26.3406	-0.13587	19.441
0.0812882	26.109	-0.136814	19.2653
0.0816371	25.8795	-0.137766	19.0907
0.0819871	25.6522	-0.138729	18.9173
0.0823383	25.4276	-0.139702	18.745
0.0826906	25.2058	-0.140689	18.5738
0.0830441	24.9861	-0.141689	18.4039
0.0833988	24.7669	-0.142703	18.2352
0.0837546	24.5483	-0.143732	18.0676
0.0841116	24.3314	-0.144773	17.9012
0.0844698	24.1157	-0.145827	17.7359
0.0848292	23.9005	-0.146891	17.5717
0.0851898	23.687	-0.147966	17.4085
0.0855516	23.4756	-0.149052	17.2464
0.0859146	23.2662	-0.15015	17.0853
0.0862788	23.0588	-0.15126	16.9253
0.0866443	22.8536	-0.152385	16.7665
0.087011	22.6505	-0.153525	16.6087
0.0873789	22.4495	-0.154682	16.4521
0.087748	22.2508	-0.155856	16.2966
0.0881184	22.0542	-0.157047	16.1422
0.0884901	21.8588	-0.158255	15.9889
0.088863	21.6647	-0.159478	15.8366
0.0892371	21.4721	-0.160715	15.6853
0.0896125	21.2803	-0.161967	15.535
0.0899892	21.0903	-0.163232	15.3856
0.0903671	20.9018	-0.164511	15.2372
0.0907463	20.7137	-0.165805	15.0898
0.0911268	20.528	-0.167115	14.9433
0.0915085	20.3423	-0.168441	14.7977
0.0918916	20.1591	-0.169785	14.6531
0.0922759	19.9772	-0.171147	14.5095
0.0926615	19.7977	-0.17253	14.3669
0.0930484	19.6201	-0.173932	14.2252
0.0934365	19.4438	-0.175356	14.0845
0.093826	19.2698	-0.1768	13.9447
0.0942167	19.0948	-0.178262	13.8058
0.0946088	18.9229	-0.179743	13.6678
0.0950021	18.7502	-0.181242	13.5305
0.0953968	18.5812	-0.182758	13.3942
0.0957927	18.4127	-0.184292	13.2586
0.0961899	18.2463	-0.185846	13.1239
0.0965884	18.0807	-0.18742	12.99
0.0969883	17.9159	-0.189015	12.857
0.0973894	17.7526	-0.190631	12.7249
0.0977918	17.5895	-0.192267	12.5936
0.0981956	17.4294	-0.193925	12.4631
0.0986006	17.269	-0.195603	12.3334
0.0990069	17.1113	-0.197302	12.2045
0.0994146	16.9536	-0.199024	12.0764
0.0998235	16.7966	-0.200768	11.9492
0.100234	16.6411	-0.202537	11.8227
0.100645	16.4846	-0.204332	11.6971
0.101058	16.3314	-0.206153	11.5723
0.101472	16.1785	-0.208001	11.4484
0.101888	16.0253	-0.209876	11.3252
0.102304	15.8767	-0.211779	11.2028
0.102722	15.729	-0.213709	11.0811
0.103142	15.5808	-0.215666	10.9602
0.103562	15.4344	-0.217655	10.84
0.103984	15.2919	-0.219679	10.7206
0.104407	15.1494	-0.221727	10.6018
0.104832	15.0066	-0.223801	10.4836
0.105258	14.8626	-0.225923	10.3663
0.105685	14.7229	-0.228084	10.2499
0.106113	14.5831	-0.230246	10.1335
0.106543	14.4437	-0.232438	10.0174
0.106974	14.3063	-0.23478	9.90361
0.107407	14.1696	-0.237143	9.79009
0.10784	14.0299	-0.239274	9.67266
0.108275	13.8935	-0.24174	9.55858
0.108711	13.7678	-0.244869	9.45696
0.109149	13.6048	-0.24869	9.31183
0.10959	13.0549	-0.271349	8.72698
0.110036	9.57376	-0.611815	5.29299
0.110546	4.31858	-1.38919	0.735111
0.111224	4.27796	-1.38524	0.723964
0.112039	4.23072	-1.38153	0.711391
0.112963	4.17758	-1.37727	0.697358
