# 3D Evrard collapse
# Equivalent 1D problem with 1000 cell co-moving grid
# t = 0.08
# radius	density	radial velocity	pressure
0.000122194	166.811	-0.000172662	0.839168
0.000366672	116.514	-0.000633286	0.836315
0.000611573	85.9866	-0.00105752	0.831632
0.000857166	72.3325	-0.00155859	0.827403
0.0011038	63.905	-0.00207933	0.822928
0.0013518	57.4827	-0.00263946	0.818437
0.0016015	52.2721	-0.00322268	0.813804
0.0018532	48.0292	-0.00382893	0.809058
0.0021072	44.6066	-0.00445306	0.804196
0.00236376	41.8528	-0.00509025	0.799224
0.00262309	39.6061	-0.00573605	0.794142
0.0028854	37.7163	-0.00638643	0.788948
0.00315083	36.0646	-0.00703829	0.783644
0.00341953	34.5708	-0.00769043	0.778248
0.00369158	33.1876	-0.00834264	0.772774
0.00396705	31.8902	-0.00899576	0.767238
0.00424596	30.6671	-0.00965127	0.761653
0.00452832	29.5126	-0.010311	0.75603
0.00481411	28.4254	-0.0109769	0.750376
0.00510328	27.4082	-0.0116509	0.744695
0.00539577	26.4674	-0.0123345	0.738989
0.00569149	25.6085	-0.0130285	0.733255
0.00599034	24.8305	-0.0137332	0.727491
0.00629221	24.1236	-0.0144484	0.721696
0.00659695	23.4752	-0.0151731	0.715872
0.00690444	22.8738	-0.0159061	0.710022
0.00721454	22.3084	-0.0166462	0.704155
0.00752707	21.7687	-0.0173921	0.69828
0.00784191	21.2472	-0.0181428	0.692406
0.00815888	20.7403	-0.0188975	0.686543
0.00847785	20.2499	-0.0196558	0.680699
0.00879866	19.7793	-0.0204178	0.674878
0.00912118	19.3301	-0.0211837	0.669083
0.00944528	18.9014	-0.0219537	0.663316
0.00977084	18.4933	-0.0227281	0.657576
0.0100978	18.1033	-0.0235067	0.651866
0.0104259	17.7302	-0.0242894	0.646186
0.0107553	17.3739	-0.0250759	0.64054
0.0110858	17.0344	-0.0258656	0.634927
0.0114173	16.7112	-0.0266581	0.629351
0.0117498	16.4044	-0.0274527	0.623812
0.0120833	16.1129	-0.0282493	0.618311
0.0124178	15.8304	-0.0290476	0.612848
0.0127531	15.5522	-0.0298478	0.607422
0.0130895	15.2777	-0.03065	0.602035
0.0134267	15.0098	-0.0314548	0.596686
0.0137648	14.751	-0.0322629	0.591372
0.014104	14.5016	-0.033075	0.586087
0.014444	14.2609	-0.0338919	0.580828
0.0147851	14.0279	-0.0347145	0.575588
0.0151271	13.8007	-0.0355435	0.570365
0.0154702	13.5777	-0.0363793	0.565154
0.0158143	13.358	-0.0372224	0.559956
0.0161595	13.1432	-0.0380725	0.554771
0.0165058	12.9364	-0.0389296	0.549599
0.0168532	12.7397	-0.0397927	0.544442
0.0172016	12.5517	-0.040661	0.539305
0.0175511	12.3685	-0.0415332	0.53419
0.0179017	12.1879	-0.042408	0.529107
0.0182532	12.0113	-0.0432838	0.52406
0.0186058	11.8401	-0.0441593	0.519057
0.0189593	11.6736	-0.045034	0.514101
0.0193136	11.5111	-0.0459075	0.509195
0.0196688	11.3522	-0.0467797	0.504338
0.0200247	11.1961	-0.0476507	0.499532
0.0203812	11.0422	-0.0485209	0.494777
0.0207384	10.8904	-0.0493904	0.490071
0.021096	10.7414	-0.0502596	0.485415
0.0214541	10.5958	-0.0511289	0.480806
0.0218125	10.4537	-0.0519985	0.476242
0.0221712	10.3144	-0.052869	0.471721
0.0225302	10.1773	-0.0537405	0.467242
0.0228893	10.0429	-0.0546132	0.462804
0.0232485	9.91109	-0.0554869	0.458406
0.0236078	9.78227	-0.0563614	0.454047
0.0239671	9.6574	-0.0572362	0.449726
0.0243264	9.53739	-0.0581107	0.445445
0.0246858	9.42238	-0.0589837	0.441203
0.0250453	9.31129	-0.0598544	0.437001
0.0254047	9.20229	-0.0607218	0.43284
0.0257643	9.09399	-0.0615852	0.428721
0.026124	8.98608	-0.0624442	0.424646
0.026484	8.87921	-0.0632984	0.420616
0.0268442	8.77438	-0.0641481	0.416631
0.0272047	8.67245	-0.0649933	0.412691
0.0275658	8.57384	-0.0658346	0.408794
0.0279274	8.47837	-0.0666725	0.404939
0.0282897	8.38522	-0.0675076	0.401124
0.0286528	8.29264	-0.0683406	0.39735
0.0290169	8.19935	-0.0691719	0.393615
0.0293821	8.10523	-0.0700019	0.389919
0.0297485	8.01198	-0.0708309	0.386263
0.0301163	7.92122	-0.0716588	0.382646
0.0304857	7.83372	-0.0724854	0.379066
0.0308567	7.74917	-0.0733105	0.375523
0.0312295	7.6665	-0.0741335	0.372014
0.0316043	7.58492	-0.0749539	0.36854
0.0319812	7.50441	-0.075771	0.365099
0.0323603	7.42523	-0.0765845	0.361692
0.0327417	7.34711	-0.0773939	0.358318
0.0331255	7.26933	-0.0781991	0.354975
0.0335118	7.19115	-0.0789998	0.351665
0.0339008	7.11263	-0.0797961	0.348386
0.0342925	7.0348	-0.0805879	0.34514
0.0346869	6.95858	-0.0813752	0.341926
0.0350841	6.88467	-0.0821578	0.338743
0.0354842	6.81301	-0.0829353	0.335592
0.0358872	6.7427	-0.0837069	0.332474
0.036293	6.67282	-0.0844715	0.329389
0.0367018	6.60335	-0.0852276	0.32634
0.0371135	6.53528	-0.0859735	0.323329
0.037528	6.46944	-0.0867073	0.320358
0.0379454	6.40536	-0.0874271	0.317429
0.0383655	6.34191	-0.0881308	0.314543
0.0387884	6.27822	-0.0888166	0.311705
0.0392139	6.21416	-0.089483	0.308916
0.0396419	6.15056	-0.0901289	0.306179
0.0400724	6.08795	-0.0907534	0.303496
0.0405052	6.02681	-0.0913563	0.300869
0.0409401	5.96759	-0.0919375	0.2983
0.0413771	5.91051	-0.0924972	0.29579
0.0418159	5.85545	-0.0930356	0.293339
0.0422564	5.80201	-0.0935531	0.290949
0.0426983	5.74973	-0.0940499	0.288621
0.0431416	5.69835	-0.0945258	0.286354
0.043586	5.64782	-0.0949806	0.28415
0.0440313	5.59821	-0.0954137	0.282008
0.0444772	5.54961	-0.0958241	0.279927
0.0449237	5.50203	-0.0962108	0.277907
0.0453704	5.45538	-0.0965727	0.275947
0.0458171	5.40956	-0.0969085	0.274044
0.0462637	5.36453	-0.0972174	0.272199
0.0467098	5.32034	-0.0974988	0.270409
0.0471554	5.27697	-0.0977525	0.268674
0.0476003	5.23475	-0.0979784	0.266993
0.0480441	5.19388	-0.0981771	0.265365
0.0484868	5.15451	-0.0983492	0.263789
0.0489281	5.11668	-0.0984961	0.262265
0.049368	5.08031	-0.0986195	0.260791
0.0498062	5.04513	-0.098721	0.259368
0.0502426	5.01086	-0.0988017	0.257995
0.0506771	4.97759	-0.0988627	0.256672
0.0511095	4.94562	-0.0989058	0.255398
0.0515398	4.91472	-0.0989335	0.25417
0.0519679	4.88417	-0.0989474	0.252985
0.0523937	4.85353	-0.0989483	0.251844
0.0528171	4.82312	-0.0989341	0.250745
0.0532381	4.79351	-0.0989049	0.249689
0.0536567	4.7651	-0.0988627	0.248672
0.0540729	4.73793	-0.0988086	0.247691
0.0544866	4.71174	-0.0987432	0.246742
0.0548978	4.68622	-0.0986671	0.245823
0.0553067	4.66122	-0.098581	0.244931
0.0557131	4.6367	-0.0984857	0.244065
0.0561173	4.61269	-0.0983822	0.24322
0.0565191	4.58924	-0.0982716	0.242396
0.0569187	4.56629	-0.0981554	0.241588
0.0573162	4.5437	-0.0980353	0.240794
0.0577116	4.52124	-0.0979142	0.24001
0.058105	4.49882	-0.0977951	0.239232
0.0584967	4.47653	-0.0976807	0.238455
0.0588865	4.45444	-0.0975736	0.237677
0.0592748	4.43264	-0.0974773	0.236892
0.0596616	4.41112	-0.0973973	0.236094
0.0600471	4.38971	-0.0973396	0.235274
0.0604315	4.36816	-0.0973097	0.234422
0.060815	4.34633	-0.0973108	0.233537
0.0611977	4.32419	-0.0973448	0.23262
0.0615799	4.30163	-0.0974217	0.231654
0.0619618	4.27851	-0.0975526	0.230626
0.0623436	4.25459	-0.0977493	0.229521
0.0627257	4.22966	-0.0980258	0.22832
0.0631082	4.20369	-0.0983981	0.227006
0.0634917	4.17671	-0.0988848	0.225554
0.0638763	4.1484	-0.0995062	0.22394
0.0642624	4.11804	-0.100284	0.22214
0.0646506	4.08501	-0.10124	0.220129
0.0650412	4.04919	-0.102393	0.217888
0.0654347	4.01076	-0.103757	0.215404
0.0658316	3.96979	-0.105336	0.212679
0.0662324	3.92644	-0.107122	0.209728
0.0666375	3.88115	-0.109091	0.206586
0.0670476	3.8346	-0.111203	0.203305
0.0674629	3.78745	-0.113406	0.199952
0.0678838	3.74054	-0.115614	0.19662
0.0683106	3.69437	-0.117765	0.193378
0.0687434	3.64882	-0.119843	0.190242
0.0691823	3.60402	-0.121843	0.187218
0.0696273	3.5603	-0.123761	0.184303
0.0700786	3.51792	-0.125604	0.181491
0.0705361	3.47689	-0.127376	0.178773
0.0709998	3.43711	-0.129085	0.176139
0.0714698	3.39839	-0.130738	0.17358
0.071946	3.3605	-0.132342	0.171089
0.0724284	3.32327	-0.133901	0.16866
0.072917	3.28663	-0.135419	0.166289
0.0734116	3.25066	-0.136899	0.163973
0.0739122	3.21539	-0.138343	0.16171
0.0744187	3.1808	-0.139752	0.159497
0.074931	3.14675	-0.141127	0.157334
0.075449	3.11311	-0.14247	0.155218
0.0759725	3.07984	-0.143782	0.153148
0.0765014	3.04706	-0.145064	0.151121
0.0770355	3.01491	-0.146319	0.149136
0.0775748	2.98343	-0.147546	0.147191
0.078119	2.95258	-0.148748	0.145282
0.0786679	2.9222	-0.149924	0.14341
0.0792216	2.89216	-0.151076	0.141572
0.0797798	2.86234	-0.152203	0.139769
0.0803424	2.83272	-0.153306	0.137998
0.0809093	2.80338	-0.154387	0.13626
0.0814804	2.77447	-0.155446	0.134553
0.0820557	2.74612	-0.156484	0.132877
0.082635	2.7184	-0.157502	0.131231
0.0832184	2.69134	-0.158502	0.129615
0.0838059	2.66489	-0.159482	0.128028
0.0843973	2.63897	-0.160444	0.126471
0.0849928	2.6134	-0.161388	0.124942
0.0855923	2.58804	-0.162315	0.123441
0.0861959	2.56291	-0.163226	0.121967
0.0868038	2.53812	-0.164122	0.120518
0.0874159	2.51369	-0.165005	0.119093
0.0880323	2.4895	-0.165875	0.117692
0.0886533	2.46549	-0.166732	0.116314
0.0892789	2.44173	-0.167577	0.114958
0.0899092	2.41834	-0.168409	0.113625
0.0905444	2.39542	-0.169227	0.112314
0.0911846	2.37299	-0.170033	0.111023
0.09183	2.351	-0.170825	0.109752
0.0924806	2.32928	-0.171605	0.108499
0.0931367	2.30769	-0.172373	0.107263
0.0937983	2.28602	-0.173131	0.106041
0.0944655	2.2642	-0.173879	0.104832
0.0951386	2.24241	-0.174618	0.103637
0.0958175	2.22083	-0.175346	0.102455
0.0965023	2.19959	-0.176064	0.101287
0.0971931	2.17876	-0.17677	0.100134
0.0978899	2.1584	-0.177464	0.098996
0.0985927	2.13848	-0.178146	0.0978748
0.0993015	2.11894	-0.178817	0.0967703
0.100016	2.09971	-0.179478	0.0956823
0.100737	2.08071	-0.180131	0.0946102
0.101463	2.06184	-0.180776	0.0935536
0.102195	2.04299	-0.181415	0.0925121
0.102932	2.02397	-0.182048	0.0914856
0.103675	2.00484	-0.182675	0.0904742
0.104422	1.98576	-0.183294	0.0894782
0.105175	1.96693	-0.183905	0.0884976
0.105932	1.94853	-0.184509	0.0875323
0.106693	1.93071	-0.185104	0.0865821
0.107459	1.9135	-0.185691	0.0856467
0.108228	1.89677	-0.186269	0.0847257
0.109	1.88026	-0.186837	0.0838189
0.109775	1.8638	-0.187395	0.0829263
0.110553	1.8474	-0.187943	0.082048
0.111333	1.83118	-0.188479	0.081184
0.112115	1.81521	-0.189004	0.0803345
0.112898	1.79945	-0.189518	0.0794995
0.113682	1.78388	-0.190021	0.0786794
0.114466	1.76851	-0.190514	0.0778746
0.115251	1.75335	-0.190998	0.0770855
0.116035	1.73843	-0.191473	0.0763128
0.116819	1.72378	-0.191939	0.0755566
0.117601	1.70944	-0.192397	0.0748169
0.118382	1.69543	-0.192848	0.0740935
0.119161	1.68176	-0.193293	0.0733856
0.119937	1.66841	-0.19373	0.0726927
0.120711	1.65535	-0.194161	0.0720143
0.121482	1.64254	-0.194583	0.0713497
0.12225	1.62995	-0.194995	0.0706986
0.123014	1.61755	-0.195398	0.0700607
0.123776	1.60534	-0.195789	0.0694358
0.124533	1.59331	-0.196168	0.0688235
0.125287	1.58151	-0.196536	0.0682236
0.126037	1.56995	-0.196894	0.0676359
0.126784	1.55864	-0.197242	0.0670603
0.127527	1.54755	-0.197582	0.0664965
0.128266	1.53664	-0.197914	0.0659443
0.129003	1.52587	-0.198241	0.0654035
0.129736	1.51529	-0.198563	0.0648737
0.130467	1.50498	-0.198882	0.0643543
0.131196	1.49495	-0.199199	0.063845
0.131922	1.48511	-0.199515	0.063345
0.132647	1.47534	-0.199829	0.0628539
0.13337	1.4656	-0.200141	0.0623712
0.134093	1.45602	-0.20045	0.0618964
0.134815	1.44675	-0.200756	0.0614293
0.135538	1.43771	-0.201058	0.0609692
0.136261	1.42878	-0.201354	0.0605156
0.136985	1.41992	-0.201644	0.060068
0.137711	1.41107	-0.201927	0.0596258
0.138439	1.40219	-0.202205	0.0591883
0.139169	1.39329	-0.202478	0.0587549
0.139902	1.38438	-0.202746	0.0583252
0.140639	1.37549	-0.203009	0.0578987
0.141379	1.36668	-0.203268	0.0574752
0.142122	1.358	-0.203524	0.0570548
0.14287	1.34949	-0.203776	0.0566374
0.143622	1.34113	-0.204025	0.0562232
0.144379	1.33288	-0.20427	0.055812
0.145141	1.32469	-0.204514	0.0554041
0.145907	1.31653	-0.204757	0.0549992
0.146677	1.30835	-0.205	0.0545974
0.147453	1.30015	-0.205244	0.0541986
0.148233	1.29194	-0.20549	0.053803
0.149018	1.28379	-0.205739	0.0534109
0.149808	1.27577	-0.205989	0.0530227
0.150602	1.26792	-0.206239	0.0526387
0.1514	1.26021	-0.206486	0.0522594
0.152202	1.25258	-0.20673	0.0518848
0.153008	1.24496	-0.206969	0.0515144
0.153818	1.23728	-0.207203	0.0511479
0.154632	1.22952	-0.207433	0.0507847
0.155448	1.22172	-0.207658	0.0504244
0.156268	1.21395	-0.20788	0.0500666
0.157091	1.20626	-0.208102	0.049711
0.157917	1.19872	-0.208323	0.0493573
0.158745	1.19136	-0.208546	0.0490055
0.159576	1.18417	-0.20877	0.0486561
0.160409	1.1771	-0.208992	0.0483102
0.161245	1.17008	-0.20921	0.0479687
0.162084	1.16306	-0.209423	0.047632
0.162924	1.15604	-0.20963	0.0473001
0.163768	1.14908	-0.209832	0.0469729
0.164614	1.14222	-0.21003	0.0466501
0.165462	1.13546	-0.210225	0.0463312
0.166313	1.12879	-0.210418	0.0460156
0.167167	1.1222	-0.210612	0.0457031
0.168023	1.11565	-0.210806	0.0453933
0.168883	1.10913	-0.211002	0.0450859
0.169746	1.10262	-0.2112	0.0447807
0.170613	1.0961	-0.211399	0.0444775
0.171483	1.08955	-0.2116	0.0441764
0.172357	1.08302	-0.211798	0.0438779
0.173236	1.07656	-0.211995	0.0435823
0.174119	1.07021	-0.212188	0.0432897
0.175006	1.06398	-0.212378	0.0430001
0.175898	1.05784	-0.212566	0.0427134
0.176795	1.05175	-0.212753	0.0424293
0.177698	1.0457	-0.212939	0.0421477
0.178606	1.03968	-0.213126	0.0418684
0.179519	1.0337	-0.213312	0.0415911
0.180438	1.02776	-0.213498	0.0413155
0.181363	1.02183	-0.213684	0.0410412
0.182293	1.01588	-0.213867	0.040768
0.18323	1.00989	-0.214047	0.0404957
0.184173	1.00386	-0.214223	0.0402241
0.185122	0.997819	-0.214394	0.0399534
0.186077	0.991799	-0.214557	0.0396836
0.187038	0.985827	-0.214714	0.0394148
0.188005	0.979935	-0.214864	0.0391471
0.188979	0.974143	-0.215008	0.0388806
0.189959	0.96844	-0.215149	0.0386156
0.190944	0.96279	-0.215287	0.0383523
0.191935	0.957156	-0.215426	0.0380904
0.192932	0.951525	-0.215567	0.0378305
0.193935	0.945928	-0.215713	0.0375726
0.194943	0.940372	-0.215865	0.0373171
0.195956	0.934853	-0.216024	0.0370645
0.196975	0.929362	-0.216188	0.0368153
0.197998	0.92389	-0.216354	0.03657
0.199026	0.918432	-0.216521	0.0363284
0.200058	0.912999	-0.216687	0.0360899
0.201095	0.907607	-0.216851	0.0358542
0.202137	0.902267	-0.217012	0.0356207
0.203182	0.896983	-0.217169	0.035389
0.204232	0.891762	-0.217323	0.035159
0.205286	0.886599	-0.217474	0.0349305
0.206345	0.881483	-0.217621	0.0347034
0.207408	0.876403	-0.217767	0.0344774
0.208475	0.871359	-0.217913	0.0342524
0.209547	0.86636	-0.218061	0.0340282
0.210623	0.861411	-0.21821	0.0338049
0.211705	0.856512	-0.21836	0.0335828
0.212792	0.851653	-0.218508	0.0333626
0.213884	0.846811	-0.218652	0.0331448
0.214982	0.841954	-0.218791	0.0329294
0.216086	0.837055	-0.218925	0.0327162
0.217197	0.832109	-0.219056	0.0325049
0.218315	0.827183	-0.219184	0.0322952
0.21944	0.822355	-0.21931	0.0320866
0.220573	0.817665	-0.219435	0.0318791
0.221715	0.81307	-0.21956	0.0316724
0.222864	0.808493	-0.219687	0.0314666
0.224023	0.803822	-0.219816	0.0312617
0.22519	0.799051	-0.219948	0.0310576
0.226367	0.79436	-0.220083	0.0308543
0.227553	0.789773	-0.220221	0.0306518
0.22875	0.785254	-0.220359	0.0304503
0.229956	0.780766	-0.220493	0.0302503
0.231171	0.776255	-0.220624	0.0300516
0.232397	0.771692	-0.22075	0.0298541
0.233632	0.767126	-0.220872	0.0296575
0.234876	0.762592	-0.220991	0.0294618
0.236129	0.758099	-0.221109	0.0292668
0.23739	0.753645	-0.221227	0.0290725
0.238659	0.749224	-0.221349	0.028879
0.239935	0.744826	-0.221474	0.0286863
0.241218	0.740439	-0.221603	0.0284946
0.242506	0.736057	-0.221731	0.028305
0.2438	0.731668	-0.221855	0.0281183
0.245097	0.727292	-0.221973	0.0279344
0.246398	0.722923	-0.222088	0.0277534
0.2477	0.718581	-0.222199	0.027575
0.249004	0.714272	-0.222309	0.0273988
0.250308	0.710027	-0.222417	0.0272247
0.251611	0.705868	-0.222525	0.0270525
0.252912	0.701808	-0.222632	0.0268818
0.254211	0.697854	-0.222741	0.0267124
0.255506	0.694008	-0.222852	0.0265442
0.256796	0.690246	-0.222966	0.0263773
0.258081	0.686537	-0.223079	0.0262126
0.259361	0.682856	-0.223188	0.0260512
0.260633	0.679202	-0.223293	0.0258934
0.261899	0.675599	-0.223395	0.0257397
0.263156	0.67207	-0.223494	0.0255901
0.264405	0.668615	-0.223592	0.0254443
0.265645	0.665225	-0.223689	0.0253018
0.266876	0.661889	-0.223782	0.0251621
0.268097	0.658596	-0.223872	0.0250244
0.269308	0.655344	-0.223958	0.0248886
0.27051	0.65213	-0.224041	0.0247542
0.271702	0.648957	-0.224123	0.0246211
0.272883	0.645833	-0.224204	0.0244896
0.274054	0.642765	-0.224281	0.0243601
0.275216	0.639758	-0.224356	0.024233
0.276367	0.636815	-0.224428	0.0241086
0.277508	0.633931	-0.224499	0.0239869
0.278639	0.631096	-0.22457	0.0238681
0.279761	0.628304	-0.22464	0.0237521
0.280873	0.625563	-0.224711	0.0236389
0.281976	0.622881	-0.224782	0.0235281
0.28307	0.620261	-0.224853	0.0234197
0.284154	0.617692	-0.224923	0.0233131
0.28523	0.615166	-0.224992	0.0232082
0.286298	0.612688	-0.22506	0.0231047
0.287358	0.61026	-0.225126	0.0230025
0.28841	0.607866	-0.22519	0.0229017
0.289455	0.605491	-0.225252	0.0228021
0.290493	0.603129	-0.225312	0.022704
0.291524	0.600785	-0.22537	0.0226073
0.292549	0.598469	-0.225427	0.022512
0.293569	0.596185	-0.225483	0.0224182
0.294583	0.593933	-0.225539	0.0223256
0.295592	0.591711	-0.225595	0.0222342
0.296597	0.589515	-0.225652	0.0221439
0.297598	0.587333	-0.225709	0.0220544
0.298596	0.585162	-0.225768	0.0219656
0.299591	0.583007	-0.225829	0.0218774
0.300584	0.580882	-0.225893	0.0217896
0.301575	0.5788	-0.225961	0.0217021
0.302565	0.576751	-0.226032	0.0216149
0.303555	0.574713	-0.226106	0.0215281
0.304545	0.572662	-0.226182	0.0214419
0.305535	0.570592	-0.226255	0.0213567
0.306527	0.568537	-0.226325	0.0212728
0.307521	0.566527	-0.226391	0.02119
0.308517	0.564556	-0.226453	0.0211084
0.309516	0.562608	-0.226509	0.021028
0.310518	0.560664	-0.226559	0.0209484
0.311523	0.558714	-0.226606	0.0208693
0.312532	0.55677	-0.226648	0.0207907
0.313546	0.554833	-0.226686	0.0207122
0.314564	0.552899	-0.226722	0.0206336
0.315586	0.550957	-0.226756	0.020555
0.316613	0.549	-0.226789	0.0204761
0.317645	0.547037	-0.226822	0.0203971
0.318682	0.545082	-0.226857	0.0203179
0.319723	0.543144	-0.226895	0.0202387
0.320769	0.541223	-0.226937	0.0201596
0.321819	0.539322	-0.226983	0.0200807
0.322874	0.537441	-0.227034	0.0200021
0.323932	0.535579	-0.227088	0.0199242
0.324994	0.533731	-0.227145	0.0198468
0.326059	0.531884	-0.227203	0.0197702
0.327126	0.53002	-0.227262	0.0196941
0.328196	0.528141	-0.22732	0.0196187
0.329268	0.526253	-0.227376	0.0195437
0.330341	0.524367	-0.227431	0.0194693
0.331415	0.52249	-0.227486	0.0193954
0.33249	0.520627	-0.227539	0.0193221
0.333565	0.518784	-0.227592	0.0192493
0.334639	0.516965	-0.227645	0.0191769
0.335713	0.515169	-0.227697	0.019105
0.336786	0.513398	-0.227748	0.0190335
0.337858	0.51165	-0.227797	0.0189624
0.338928	0.509923	-0.227843	0.0188917
0.339997	0.508215	-0.227885	0.0188214
0.341064	0.50652	-0.227923	0.0187516
0.342129	0.504832	-0.227958	0.0186821
0.343193	0.503146	-0.22799	0.0186131
0.344256	0.501464	-0.228021	0.0185446
0.345318	0.499788	-0.228051	0.0184765
0.346378	0.498121	-0.228083	0.018409
0.347439	0.49646	-0.228117	0.018342
0.3485	0.494804	-0.228155	0.0182757
0.349561	0.493156	-0.228197	0.0182101
0.350623	0.49152	-0.228243	0.0181451
0.351688	0.489901	-0.228291	0.0180807
0.352755	0.488303	-0.228341	0.0180169
0.353826	0.486731	-0.228392	0.0179535
0.354901	0.485183	-0.228441	0.0178904
0.355981	0.483642	-0.228488	0.0178277
0.357067	0.482079	-0.228532	0.017765
0.358159	0.480479	-0.228574	0.0177023
0.359259	0.478885	-0.228614	0.0176394
0.360367	0.477314	-0.228653	0.0175765
0.361484	0.475757	-0.228691	0.0175133
0.36261	0.474202	-0.228729	0.0174499
0.363747	0.472631	-0.228768	0.0173862
0.364894	0.471032	-0.228807	0.0173223
0.366052	0.469419	-0.228847	0.0172583
0.367221	0.467815	-0.228889	0.017194
0.368402	0.466218	-0.228931	0.0171295
0.369595	0.464621	-0.228974	0.0170648
0.370799	0.46301	-0.229019	0.0169999
0.372015	0.461374	-0.229063	0.0169349
0.373242	0.459711	-0.229109	0.0168698
0.37448	0.458032	-0.229155	0.0168048
0.375728	0.456349	-0.229197	0.0167402
0.376987	0.454677	-0.229238	0.016676
0.378254	0.453025	-0.229277	0.0166119
0.37953	0.451396	-0.229315	0.016548
0.380814	0.449789	-0.229352	0.016484
0.382105	0.448199	-0.229388	0.0164199
0.383401	0.446616	-0.229425	0.0163556
0.384701	0.445032	-0.229463	0.0162912
0.386005	0.443439	-0.229505	0.0162267
0.38731	0.441835	-0.229553	0.0161623
0.388617	0.440227	-0.229606	0.0160981
0.389923	0.438629	-0.229659	0.0160346
