# 3D Evrard collapse
# Equivalent 1D problem with 1000 cell co-moving grid
# t = 0.85
# radius	density	radial velocity	pressure
5.59761e-05	5494.81	-7.17338e-05	291.865
0.000167943	5463.61	4.46639e-05	290.043
0.000279904	5313.58	-8.60734e-05	287.074
0.000391886	4912.1	-1.26077e-05	282.805
0.000503877	4083.25	-6.40766e-05	278.149
0.000615889	2964.64	-5.43407e-05	274.023
0.000727922	2202.32	8.83103e-07	270.883
0.000839968	1791.4	3.5295e-05	268.496
0.000952022	1550.73	5.04289e-05	266.545
0.00106408	1395.11	5.55094e-05	264.863
0.00117615	1286.27	5.48846e-05	263.355
0.00128823	1204.25	5.16628e-05	261.968
0.00140032	1137.69	4.71547e-05	260.667
0.00151243	1080.44	4.2271e-05	259.433
0.00162456	1029.43	3.75093e-05	258.253
0.00173671	983.202	3.31515e-05	257.119
0.00184888	941.185	2.93133e-05	256.027
0.00196108	903.282	2.59984e-05	254.969
0.00207331	869.536	2.31171e-05	253.943
0.00218557	839.811	2.05403e-05	252.943
0.00229787	813.688	1.81559e-05	251.966
0.0024102	790.542	1.58915e-05	251.007
0.00252257	769.684	1.37132e-05	250.063
0.00263499	750.463	1.16243e-05	249.133
0.00274745	732.366	9.65811e-06	248.215
0.00285995	715.094	7.8579e-06	247.308
0.0029725	698.567	6.24732e-06	246.412
0.00308511	682.818	4.82338e-06	245.525
0.00319776	667.888	3.56654e-06	244.648
0.00331048	653.773	2.4541e-06	243.78
0.00342325	640.423	1.47016e-06	242.92
0.00353607	627.775	6.08269e-07	242.068
0.00364897	615.797	-1.34084e-07	241.223
0.00376192	604.493	-7.66389e-07	240.385
0.00387494	593.874	-1.31221e-06	239.553
0.00398803	583.895	-1.802e-06	238.727
0.00410119	574.434	-2.25476e-06	237.906
0.00421442	565.327	-2.66631e-06	237.089
0.00432772	556.453	-3.01623e-06	236.277
0.0044411	547.782	-3.2859e-06	235.47
0.00455456	539.358	-3.47156e-06	234.668
0.0046681	531.239	-3.58463e-06	233.87
0.00478172	523.444	-3.64382e-06	233.076
0.00489543	515.936	-3.65963e-06	232.286
0.00500922	508.644	-3.63125e-06	231.501
0.0051231	501.521	-3.54608e-06	230.719
0.00523707	494.576	-3.39241e-06	229.941
0.00535113	487.865	-3.17258e-06	229.168
0.00546529	481.444	-2.90212e-06	228.398
0.00557954	475.322	-2.5981e-06	227.631
0.00569389	469.461	-2.26866e-06	226.868
0.00580833	463.81	-1.91271e-06	226.108
0.00592288	458.339	-1.52708e-06	225.35
0.00603754	453.035	-1.11231e-06	224.596
0.00615229	447.89	-6.72592e-07	223.844
0.00626716	442.886	-2.11745e-07	223.095
0.00638214	437.994	2.70241e-07	222.348
0.00649722	433.186	7.77288e-07	221.604
0.00661242	428.45	1.31425e-06	220.862
0.00672773	423.787	1.8834e-06	220.123
0.00684316	419.208	2.4833e-06	219.386
0.00695871	414.712	3.11083e-06	218.652
0.00707438	410.292	3.76493e-06	217.921
0.00719018	405.934	4.44893e-06	217.192
0.00730609	401.637	5.16928e-06	216.466
0.00742213	397.424	5.93086e-06	215.742
0.00753831	393.334	6.73197e-06	215.021
0.00765461	389.404	7.56291e-06	214.303
0.00777104	385.647	8.40994e-06	213.586
0.0078876	382.038	9.26253e-06	212.872
0.00800431	378.526	1.01191e-05	212.16
0.00812114	375.065	1.09871e-05	211.45
0.00823812	371.632	1.18771e-05	210.741
0.00835524	368.241	1.27953e-05	210.035
0.0084725	364.923	1.37397e-05	209.331
0.00858991	361.7	1.47021e-05	208.628
0.00870746	358.571	1.5674e-05	207.927
0.00882516	355.509	1.66514e-05	207.228
0.00894302	352.48	1.76365e-05	206.531
0.00906102	349.455	1.86329e-05	205.835
0.00917918	346.416	1.96593e-05	205.142
0.0092975	343.399	2.07205e-05	204.45
0.00941597	340.451	2.18099e-05	203.76
0.0095346	337.595	2.29191e-05	203.072
0.00965339	334.835	2.40414e-05	202.385
0.00977235	332.158	2.51723e-05	201.7
0.00989147	329.54	2.63098e-05	201.017
0.0100108	326.958	2.74545e-05	200.335
0.0101302	324.39	2.86093e-05	199.655
0.0102499	321.822	2.97781e-05	198.976
0.0103697	319.25	3.09711e-05	198.299
0.0104896	316.695	3.21893e-05	197.624
0.0106098	314.181	3.34297e-05	196.95
0.0107301	311.718	3.4689e-05	196.278
0.0108506	309.31	3.59657e-05	195.607
0.0109713	306.959	3.72588e-05	194.939
0.0110922	304.667	3.85669e-05	194.271
0.0112133	302.433	3.98868e-05	193.605
0.0113345	300.25	4.12154e-05	192.94
0.011456	298.106	4.25508e-05	192.277
0.0115776	295.984	4.38934e-05	191.615
0.0116994	293.869	4.52457e-05	190.954
0.0118214	291.753	4.66046e-05	190.294
0.0119436	289.616	4.79869e-05	189.636
0.0120661	287.479	4.94003e-05	188.979
0.0121887	285.383	5.08363e-05	188.324
0.0123115	283.343	5.22892e-05	187.67
0.0124345	281.361	5.37543e-05	187.018
0.0125578	279.429	5.52289e-05	186.367
0.0126812	277.539	5.67124e-05	185.717
0.0128048	275.678	5.82051e-05	185.068
0.0129287	273.841	5.9708e-05	184.42
0.0130528	272.02	6.12214e-05	183.774
0.0131771	270.213	6.27456e-05	183.129
0.0133016	268.413	6.42807e-05	182.484
0.0134263	266.617	6.5828e-05	181.841
0.0135513	264.822	6.73897e-05	181.2
0.0136764	263.027	6.89682e-05	180.559
0.0138018	261.239	7.05655e-05	179.92
0.0139274	259.465	7.21824e-05	179.282
0.0140533	257.713	7.38186e-05	178.645
0.0141794	255.993	7.54728e-05	178.01
0.0143057	254.31	7.7143e-05	177.376
0.0144323	252.667	7.88269e-05	176.743
0.014559	251.062	8.05219e-05	176.111
0.0146861	249.491	8.2226e-05	175.48
0.0148133	247.946	8.39377e-05	174.85
0.0149408	246.418	8.56572e-05	174.221
0.0150686	244.898	8.73858e-05	173.594
0.0151966	243.379	8.91242e-05	172.967
0.0153248	241.856	9.08778e-05	172.341
0.0154533	240.334	9.26514e-05	171.716
0.0155821	238.825	9.44432e-05	171.093
0.0157111	237.337	9.62511e-05	170.47
0.0158403	235.874	9.80725e-05	169.849
0.0159699	234.433	9.99056e-05	169.229
0.0160996	233.013	0.000101749	168.609
0.0162297	231.607	0.000103604	167.991
0.01636	230.211	0.00010547	167.373
0.0164905	228.822	0.000107349	166.757
0.0166214	227.441	0.000109244	166.141
0.0167525	226.07	0.000111154	165.527
0.0168838	224.711	0.000113079	164.914
0.0170155	223.366	0.000115017	164.301
0.0171474	222.034	0.000116969	163.69
0.0172796	220.714	0.000118934	163.079
0.0174121	219.406	0.000120914	162.47
0.0175448	218.109	0.000122908	161.861
0.0176778	216.826	0.000124917	161.253
0.0178112	215.556	0.00012694	160.647
0.0179448	214.3	0.000128975	160.041
0.0180787	213.055	0.000131023	159.436
0.0182128	211.818	0.000133084	158.833
0.0183473	210.589	0.00013516	158.23
0.0184821	209.368	0.000137253	157.628
0.0186172	208.16	0.000139362	157.027
0.0187525	206.967	0.000141486	156.426
0.0188882	205.791	0.000143623	155.827
0.0190241	204.629	0.000145772	155.229
0.0191604	203.478	0.000147931	154.631
0.019297	202.333	0.000150101	154.035
0.0194339	201.19	0.000152283	153.439
0.0195711	200.047	0.000154479	152.844
0.0197086	198.902	0.000156696	152.25
0.0198464	197.763	0.000158932	151.657
0.0199845	196.635	0.000161186	151.065
0.0201229	195.523	0.000163457	150.473
0.0202617	194.426	0.000165741	149.883
0.0204008	193.343	0.000168037	149.294
0.0205402	192.27	0.000170346	148.705
0.0206799	191.205	0.00017267	148.117
0.02082	190.146	0.000175008	147.53
0.0209604	189.094	0.000177362	146.944
0.0211011	188.05	0.000179732	146.359
0.0212421	187.014	0.000182117	145.775
0.0213835	185.987	0.000184518	145.191
0.0215252	184.967	0.000186931	144.608
0.0216673	183.953	0.000189357	144.026
0.0218097	182.942	0.000191797	143.445
0.0219524	181.932	0.000194251	142.865
0.0220955	180.919	0.000196723	142.286
0.022239	179.908	0.000199218	141.707
0.0223827	178.904	0.000201734	141.13
0.0225269	177.911	0.00020427	140.553
0.0226714	176.933	0.000206824	139.978
0.0228162	175.97	0.000209393	139.403
0.0229614	175.022	0.000211975	138.829
0.0231069	174.084	0.000214569	138.256
0.0232528	173.154	0.000217176	137.683
0.0233991	172.227	0.000219796	137.112
0.0235458	171.301	0.000222432	136.541
0.0236927	170.376	0.000225087	135.971
0.0238401	169.454	0.000227762	135.402
0.0239879	168.538	0.000230457	134.834
0.024136	167.631	0.000233171	134.266
0.0242844	166.734	0.000235902	133.7
0.0244333	165.846	0.000238648	133.134
0.0245825	164.967	0.000241408	132.569
0.0247321	164.092	0.000244182	132.005
0.0248821	163.22	0.00024697	131.441
0.0250325	162.348	0.000249773	130.879
0.0251833	161.476	0.000252588	130.317
0.0253344	160.597	0.000255425	129.756
0.025486	159.715	0.000258297	129.196
0.0256379	158.843	0.000261194	128.637
0.0257902	157.986	0.000264113	128.079
0.0259429	157.144	0.000267049	127.522
0.026096	156.317	0.000269999	126.965
0.0262495	155.502	0.000272962	126.409
0.0264034	154.695	0.000275938	125.855
0.0265578	153.893	0.000278928	125.3
0.0267125	153.092	0.000281933	124.747
0.0268676	152.291	0.000284952	124.195
0.0270231	151.488	0.00028798	123.643
0.0271791	150.675	0.000291016	123.092
0.0273354	149.847	0.000294097	122.542
0.0274922	149.019	0.000297221	121.993
0.0276494	148.206	0.000300368	121.445
0.027807	147.41	0.000303535	120.898
0.027965	146.628	0.000306718	120.351
0.0281234	145.86	0.000309915	119.806
0.0282823	145.101	0.000313127	119.261
0.0284416	144.348	0.000316354	118.718
0.0286013	143.6	0.000319596	118.175
0.0287614	142.853	0.000322857	117.632
0.028922	142.107	0.000326135	117.091
0.029083	141.361	0.000329432	116.551
0.0292445	140.614	0.000332746	116.011
0.0294063	139.864	0.000336088	115.472
0.0295687	139.116	0.000339456	114.934
0.0297314	138.371	0.000342848	114.397
0.0298946	137.632	0.000346263	113.861
0.0300583	136.9	0.000349701	113.326
0.0302224	136.174	0.000353159	112.792
0.0303869	135.455	0.000356637	112.258
0.0305519	134.741	0.000360135	111.726
0.0307173	134.032	0.000363652	111.194
0.0308832	133.326	0.00036719	110.664
0.0310496	132.624	0.000370749	110.134
0.0312164	131.924	0.000374329	109.605
0.0313837	131.226	0.000377931	109.077
0.0315514	130.532	0.000381556	108.55
0.0317196	129.84	0.000385203	108.023
0.0318883	129.151	0.000388872	107.498
0.0320574	128.464	0.000392565	106.974
0.032227	127.78	0.000396282	106.45
0.0323971	127.1	0.000400023	105.928
0.0325676	126.424	0.00040379	105.406
0.0327386	125.753	0.000407582	104.885
0.0329101	125.088	0.000411399	104.366
0.0330821	124.429	0.000415237	103.847
0.0332546	123.777	0.000419097	103.329
0.0334275	123.129	0.000422978	102.812
0.0336009	122.484	0.000426878	102.296
0.0337748	121.843	0.000430798	101.781
0.0339492	121.202	0.000434739	101.267
0.0341241	120.561	0.000438702	100.753
0.0342995	119.92	0.000442684	100.241
0.0344753	119.276	0.0004467	99.7295
0.0346517	118.633	0.000450749	99.2192
0.0348286	117.994	0.000454826	98.7098
0.0350059	117.36	0.000458929	98.2014
0.0351838	116.732	0.000463057	97.694
0.0353621	116.108	0.000467208	97.1876
0.035541	115.489	0.000471385	96.6821
0.0357204	114.874	0.000475586	96.1777
0.0359003	114.262	0.000479813	95.6742
0.0360807	113.655	0.000484066	95.1717
0.0362616	113.052	0.000488342	94.6702
0.036443	112.452	0.000492642	94.1697
0.0366249	111.854	0.000496965	93.6702
0.0368074	111.258	0.000501311	93.1717
0.0369904	110.663	0.000505681	92.6741
0.0371738	110.068	0.000510075	92.1776
0.0373579	109.472	0.000514489	91.6821
0.0375424	108.873	0.00051894	91.1877
0.0377275	108.275	0.000523431	90.6943
0.0379131	107.68	0.000527955	90.2021
0.0380992	107.091	0.000532509	89.7109
0.0382859	106.507	0.00053709	89.2208
0.0384731	105.928	0.000541698	88.7318
0.0386608	105.354	0.000546331	88.2439
0.0388491	104.785	0.000550991	87.757
0.0390379	104.219	0.000555677	87.2712
0.0392272	103.656	0.000560391	86.7864
0.0394171	103.096	0.000565132	86.3028
0.0396075	102.538	0.0005699	85.8201
0.0397985	101.983	0.000574693	85.3386
0.03999	101.429	0.000579513	84.8581
0.0401821	100.875	0.00058436	84.3787
0.0403748	100.322	0.000589235	83.9004
0.040568	99.7685	0.000594142	83.4233
0.0407617	99.2152	0.000599083	82.9473
0.040956	98.6634	0.00060406	82.4724
0.0411509	98.1141	0.000609071	81.9987
0.0413463	97.5681	0.000614115	81.5262
0.0415423	97.0259	0.000619191	81.0548
0.0417388	96.4874	0.000624296	80.5845
0.0419359	95.9525	0.000629429	80.1155
0.0421336	95.4204	0.000634591	79.6476
0.0423319	94.8905	0.00063978	79.1808
0.0425307	94.3619	0.000644998	78.7153
0.0427301	93.834	0.000650245	78.2509
0.0429301	93.3064	0.000655522	77.7877
0.0431306	92.7786	0.000660827	77.3257
0.0433318	92.2498	0.00066616	76.8649
0.0435335	91.719	0.00067154	76.4054
0.0437358	91.1892	0.000676963	75.9472
0.0439386	90.6623	0.000682425	75.4903
0.0441421	90.1392	0.000687923	75.0346
0.0443462	89.6201	0.000693454	74.5802
0.0445508	89.1049	0.000699018	74.1271
0.044756	88.5933	0.000704612	73.6753
0.0449619	88.0846	0.000710236	73.2247
0.0451683	87.578	0.000715891	72.7755
0.0453753	87.073	0.000721577	72.3275
0.0455829	86.569	0.000727296	71.8808
0.0457912	86.0654	0.000733047	71.4354
0.046	85.562	0.000738831	70.9913
0.0462094	85.0585	0.000744648	70.5486
0.0464195	84.5544	0.000750495	70.1072
0.0466301	84.0487	0.000756372	69.6672
0.0468414	83.5405	0.000762304	69.2286
0.0470532	83.0329	0.000768287	68.7914
0.0472657	82.5282	0.000774314	68.3557
0.0474788	82.0272	0.000780381	67.9214
0.0476925	81.5304	0.000786487	67.4885
0.0479068	81.0379	0.000792628	67.0571
0.0481218	80.5495	0.000798802	66.627
0.0483373	80.0642	0.000805008	66.1984
0.0485535	79.5811	0.000811244	65.7713
0.0487703	79.0992	0.000817512	65.3455
0.0489878	78.6178	0.000823815	64.9212
0.0492059	78.1363	0.000830147	64.4983
0.0494246	77.6534	0.000836497	64.0769
0.0496439	77.1666	0.000842851	63.657
0.0498639	76.6715	0.000849194	63.2387
0.0500845	76.1613	0.000855506	62.822
0.0503058	75.627	0.000861767	62.4071
0.0505277	75.0575	0.000867974	61.9941
0.0507502	74.4408	0.000874126	61.5833
0.0509734	73.7656	0.000880308	61.175
0.0511972	73.0279	0.000887002	60.7696
0.0514217	72.2909	0.000894018	60.3673
0.0516468	71.5878	0.000901093	59.9679
0.0518726	70.9168	0.000908201	59.5715
0.052099	70.2754	0.000915335	59.1778
0.0523261	69.6603	0.00092249	58.7867
0.0525538	69.068	0.000929664	58.398
0.0527822	68.4952	0.000936859	58.0118
0.0530113	67.9387	0.000944075	57.6279
0.053241	67.3958	0.000951318	57.2462
0.0534714	66.8644	0.000958591	56.8667
0.0537025	66.343	0.000965897	56.4894
0.0539342	65.8304	0.000973237	56.1142
0.0541666	65.3256	0.000980613	55.7412
0.0543996	64.828	0.000988025	55.3701
0.0546334	64.3368	0.000995471	55.0012
0.0548678	63.8513	0.00100295	54.6343
0.0551029	63.3706	0.00101047	54.2694
0.0553387	62.8939	0.00101801	53.9065
0.0555751	62.4203	0.00102559	53.5456
0.0558123	61.949	0.00103321	53.1867
0.0560501	61.4792	0.00104086	52.8298
0.0562886	61.0106	0.00104856	52.475
0.0565278	60.5429	0.00105629	52.1221
0.0567677	60.0765	0.00106408	51.7714
0.0570083	59.6117	0.00107192	51.4226
0.0572496	59.1495	0.00107981	51.0759
0.0574916	58.6909	0.00108775	50.7313
0.0577343	58.2368	0.00109575	50.3887
0.0579777	57.7879	0.00110379	50.0481
0.0582217	57.3448	0.00111189	49.7095
0.0584665	56.9075	0.00112002	49.3729
0.058712	56.4758	0.00112819	49.0382
0.0589583	56.0492	0.0011364	48.7055
0.0592052	55.6273	0.00114465	48.3747
0.0594528	55.2093	0.00115294	48.0459
0.0597012	54.7947	0.00116126	47.7189
0.0599503	54.3831	0.00116963	47.3938
0.0602001	53.9743	0.00117804	47.0707
0.0604506	53.5679	0.00118649	46.7494
0.0607019	53.1638	0.00119499	46.43
0.0609538	52.7619	0.00120353	46.1125
0.0612066	52.3623	0.00121212	45.7969
0.06146	51.9649	0.00122076	45.4831
0.0617142	51.5699	0.00122945	45.1713
0.0619691	51.1775	0.00123818	44.8613
0.0622248	50.788	0.00124697	44.5531
0.0624812	50.4014	0.00125581	44.2469
0.0627383	50.018	0.0012647	43.9424
0.0629962	49.6377	0.00127364	43.6399
0.0632548	49.2605	0.00128262	43.3391
0.0635142	48.8862	0.00129165	43.0402
0.0637744	48.5146	0.00130073	42.7431
0.0640353	48.1455	0.00130986	42.4479
0.0642969	47.7788	0.00131904	42.1544
0.0645594	47.4146	0.00132828	41.8627
0.0648225	47.0529	0.00133757	41.5729
0.0650865	46.694	0.00134691	41.2848
0.0653512	46.3379	0.00135631	40.9985
0.0656167	45.985	0.00136577	40.7139
0.065883	45.6353	0.00137528	40.4312
0.0661501	45.2888	0.00138485	40.1502
0.0664179	44.9453	0.00139447	39.8709
0.0666865	44.6049	0.00140414	39.5933
0.0669559	44.2673	0.00141386	39.3175
0.0672261	43.9322	0.00142364	39.0434
0.0674971	43.5997	0.00143348	38.7709
0.0677689	43.2694	0.00144337	38.5002
0.0680414	42.9412	0.00145332	38.2312
0.0683148	42.6152	0.00146333	37.9638
0.068589	42.2912	0.0014734	37.6981
0.068864	41.9694	0.00148354	37.4341
0.0691398	41.65	0.00149374	37.1717
0.0694164	41.3333	0.001504	36.911
0.0696938	41.0194	0.00151434	36.652
0.0699721	40.7084	0.00152473	36.3946
0.0702512	40.4003	0.00153519	36.1388
0.0705311	40.095	0.00154571	35.8846
0.0708118	39.7923	0.00155629	35.632
0.0710934	39.4922	0.00156693	35.381
0.0713758	39.1943	0.00157764	35.1315
0.071659	38.8988	0.00158842	34.8837
0.0719431	38.6054	0.00159927	34.6374
0.072228	38.3144	0.00161018	34.3926
0.0725138	38.0256	0.00162117	34.1494
0.0728004	37.7391	0.00163222	33.9078
0.0730879	37.4548	0.00164334	33.6676
0.0733763	37.1724	0.00165453	33.429
0.0736655	36.892	0.00166579	33.1919
0.0739556	36.6133	0.00167712	32.9563
0.0742466	36.3365	0.00168852	32.7222
0.0745384	36.0614	0.00170001	32.4896
0.0748311	35.7884	0.00171157	32.2585
0.0751247	35.5178	0.00172322	32.0288
0.0754192	35.2498	0.00173495	31.8006
0.0757146	34.9845	0.00174676	31.5739
0.0760109	34.7221	0.00175864	31.3486
0.0763081	34.4625	0.0017706	31.1247
0.0766062	34.2055	0.00178263	30.9023
0.0769052	33.9507	0.00179473	30.6812
0.0772051	33.6978	0.0018069	30.4615
0.077506	33.4465	0.00181915	30.2433
0.0778077	33.1965	0.00183148	30.0264
0.0781104	32.9477	0.00184389	29.8108
0.0784141	32.7001	0.00185638	29.5967
0.0787186	32.4538	0.00186896	29.3839
0.0790242	32.209	0.00188164	29.1724
0.0793306	31.9659	0.0018944	28.9624
0.079638	31.7248	0.00190725	28.7536
0.0799464	31.4859	0.0019202	28.5462
0.0802558	31.2493	0.00193323	28.3402
0.0805661	31.015	0.00194635	28.1354
0.0808774	30.7831	0.00195956	27.932
0.0811896	30.5534	0.00197286	27.7298
0.0815029	30.3259	0.00198623	27.5289
0.0818171	30.1003	0.0019997	27.3293
0.0821324	29.8765	0.00201324	27.1309
0.0824486	29.6544	0.00202688	26.9338
0.0827659	29.4336	0.0020406	26.7379
0.0830841	29.2142	0.00205441	26.5433
0.0834034	28.996	0.00206832	26.3499
0.0837237	28.7792	0.00208233	26.1577
0.0840451	28.5639	0.00209643	25.9667
0.0843675	28.3503	0.00211063	25.777
0.0846909	28.1385	0.00212493	25.5884
0.0850154	27.9285	0.00213932	25.4011
0.0853409	27.7203	0.00215381	25.2149
0.0856676	27.5138	0.00216839	25.0299
0.0859952	27.3091	0.00218306	24.8461
0.086324	27.1061	0.00219783	24.6634
0.0866539	26.9046	0.0022127	24.4818
0.0869848	26.7049	0.00222767	24.3014
0.0873168	26.5067	0.00224273	24.1222
0.08765	26.3102	0.00225789	23.944
0.0879843	26.1152	0.00227315	23.767
0.0883197	25.9217	0.0022885	23.591
0.0886562	25.7297	0.00230395	23.4162
0.0889938	25.5392	0.00231951	23.2424
0.0893327	25.3504	0.00233516	23.0698
0.0896726	25.163	0.00235091	22.8982
0.0900138	24.9772	0.00236676	22.7276
0.0903561	24.7928	0.0023827	22.5581
0.0906995	24.6095	0.00239873	22.3897
0.0910442	24.4272	0.00241486	22.2223
0.0913901	24.2458	0.00243109	22.0559
0.0917372	24.0652	0.00244742	21.8906
0.0920854	23.8854	0.00246385	21.7263
0.092435	23.7066	0.0024804	21.563
0.0927857	23.5292	0.00249706	21.4007
0.0931377	23.3533	0.00251383	21.2394
0.093491	23.1791	0.0025307	21.0792
0.0938455	23.0067	0.00254767	20.9199
0.0942013	22.836	0.00256474	20.7616
0.0945583	22.6671	0.00258191	20.6043
0.0949167	22.4996	0.00259917	20.4479
0.0952764	22.3335	0.00261653	20.2925
0.0956374	22.1686	0.00263399	20.138
0.0959997	22.005	0.00265154	19.9845
0.0963633	21.8425	0.0026692	19.8319
0.0967283	21.6811	0.00268697	19.6802
0.0970947	21.5209	0.00270483	19.5294
0.0974624	21.3619	0.0027228	19.3795
0.0978315	21.2041	0.00274087	19.2305
0.0982021	21.0474	0.00275903	19.0824
0.098574	20.8917	0.0027773	18.9352
0.0989473	20.7371	0.00279566	18.7889
0.0993221	20.5833	0.00281412	18.6435
0.0996983	20.4304	0.00283269	18.4989
0.100076	20.2782	0.00285135	18.3552
0.100455	20.1267	0.00287012	18.2123
0.100836	19.976	0.002889	18.0703
0.101218	19.8262	0.00290799	17.9292
0.101602	19.6774	0.0029271	17.7889
0.101987	19.5299	0.00294631	17.6494
0.102373	19.3837	0.00296564	17.5108
0.102762	19.2391	0.00298508	17.373
0.103152	19.0959	0.00300461	17.236
0.103543	18.9541	0.00302425	17.0998
0.103936	18.8136	0.00304399	16.9644
0.104331	18.6742	0.00306383	16.8298
0.104727	18.5358	0.00308377	16.696
0.105125	18.3984	0.00310382	16.5629
0.105525	18.2618	0.00312397	16.4306
0.105926	18.1259	0.00314424	16.299
0.106329	17.9908	0.00316461	16.1682
0.106734	17.8565	0.0031851	16.0382
0.10714	17.7229	0.00320571	15.9089
0.107548	17.5902	0.00322643	15.7804
0.107958	17.4583	0.00324728	15.6526
